370.000	 -0.215	  0.015
370.004	 -0.240	  0.030
370.008	 -0.240	  0.005
370.012	 -0.225	 -0.020
370.016	 -0.225	 -0.050
370.020	 -0.200	 -0.055
370.024	 -0.230	 -0.050
370.028	 -0.280	 -0.050
370.032	 -0.365	  0.000
370.036	 -0.410	 -0.025
370.040	 -0.455	 -0.025
370.044	 -0.500	 -0.005
370.048	 -0.550	  0.015
370.052	 -0.555	 -0.010
370.056	 -0.545	 -0.040
370.060	 -0.550	 -0.020
370.064	 -0.575	 -0.025
370.068	 -0.585	 -0.025
370.072	 -0.580	 -0.025
370.076	 -0.560	 -0.035
370.080	 -0.580	 -0.045
370.084	 -0.620	 -0.025
370.088	 -0.635	 -0.015
370.092	 -0.570	 -0.035
370.096	 -0.405	 -0.065
370.100	 -0.170	 -0.070
370.104	  0.130	 -0.005
370.108	  0.390	  0.080
370.112	  0.695	  0.010
370.116	  1.080	 -0.350
370.120	  1.615	 -0.985
370.124	  2.150	 -1.625
370.128	  2.505	 -2.265
370.132	  2.510	 -2.845
370.136	  2.345	 -3.210
370.140	  2.080	 -3.125
370.144	  1.670	 -2.550
370.148	  1.180	 -1.915
370.152	  0.695	 -1.405
370.156	  0.280	 -1.055
370.160	 -0.090	 -0.785
370.164	 -0.420	 -0.575
370.168	 -0.695	 -0.445
370.172	 -0.855	 -0.350
370.176	 -0.935	 -0.265
370.180	 -0.925	 -0.210
370.184	 -0.885	 -0.120
370.188	 -0.835	 -0.040
370.192	 -0.790	  0.015
370.196	 -0.770	  0.095
370.200	 -0.765	  0.150
370.204	 -0.760	  0.160
370.208	 -0.750	  0.220
370.212	 -0.750	  0.245
370.216	 -0.725	  0.240
370.220	 -0.725	  0.245
370.224	 -0.720	  0.265
370.228	 -0.705	  0.290
370.232	 -0.700	  0.320
370.236	 -0.690	  0.325
370.240	 -0.675	  0.330
370.244	 -0.680	  0.335
370.248	 -0.685	  0.355
370.252	 -0.680	  0.380
370.256	 -0.685	  0.405
370.260	 -0.705	  0.405
370.264	 -0.670	  0.430
370.268	 -0.660	  0.430
370.272	 -0.650	  0.425
370.276	 -0.660	  0.480
370.280	 -0.640	  0.480
370.284	 -0.675	  0.500
370.288	 -0.680	  0.515
370.292	 -0.655	  0.555
370.296	 -0.645	  0.575
370.300	 -0.670	  0.600
370.304	 -0.700	  0.645
370.308	 -0.705	  0.680
370.312	 -0.705	  0.705
370.316	 -0.700	  0.740
370.320	 -0.730	  0.780
370.324	 -0.750	  0.810
370.328	 -0.755	  0.845
370.332	 -0.700	  0.855
370.336	 -0.735	  0.880
370.340	 -0.730	  0.900
370.344	 -0.755	  0.900
370.348	 -0.765	  0.885
370.352	 -0.720	  0.875
370.356	 -0.655	  0.865
370.360	 -0.615	  0.795
370.364	 -0.570	  0.770
370.368	 -0.570	  0.700
370.372	 -0.500	  0.640
370.376	 -0.460	  0.575
370.380	 -0.460	  0.495
370.384	 -0.450	  0.435
370.388	 -0.435	  0.390
370.392	 -0.405	  0.340
370.396	 -0.385	  0.295
370.400	 -0.385	  0.240
370.404	 -0.395	  0.215
370.408	 -0.380	  0.200
370.412	 -0.365	  0.165
370.416	 -0.390	  0.150
370.420	 -0.395	  0.110
370.424	 -0.420	  0.110
370.428	 -0.415	  0.135
370.432	 -0.410	  0.100
370.436	 -0.410	  0.090
370.440	 -0.410	  0.070
370.444	 -0.400	  0.075
370.448	 -0.400	  0.090
370.452	 -0.385	  0.090
370.456	 -0.415	  0.080
370.460	 -0.420	  0.090
370.464	 -0.430	  0.095
370.468	 -0.465	  0.090
370.472	 -0.445	  0.070
370.476	 -0.435	  0.070
370.480	 -0.430	  0.080
370.484	 -0.455	  0.085
370.488	 -0.460	  0.090
370.492	 -0.440	  0.080
370.496	 -0.430	  0.100
370.500	 -0.440	  0.070
370.504	 -0.440	  0.090
370.508	 -0.445	  0.055
370.512	 -0.455	  0.065
370.516	 -0.450	  0.060
370.520	 -0.420	  0.060
370.524	 -0.435	  0.050
370.528	 -0.455	  0.060
370.532	 -0.440	  0.040
370.536	 -0.430	  0.045
370.540	 -0.430	  0.060
370.544	 -0.455	  0.030
370.548	 -0.430	  0.045
370.552	 -0.425	  0.035
370.556	 -0.385	  0.025
370.560	 -0.380	  0.015
370.564	 -0.375	  0.010
370.568	 -0.355	  0.025
370.572	 -0.285	  0.030
370.576	 -0.260	  0.030
370.580	 -0.265	  0.040
370.584	 -0.240	  0.085
370.588	 -0.225	  0.070
370.592	 -0.175	  0.120
370.596	 -0.145	  0.120
370.600	 -0.150	  0.115
370.604	 -0.130	  0.095
370.608	 -0.095	  0.070
370.612	 -0.065	  0.050
370.616	 -0.055	  0.035
370.620	 -0.070	  0.020
370.624	 -0.100	  0.005
370.628	 -0.095	 -0.035
370.632	 -0.080	 -0.045
370.636	 -0.080	 -0.055
370.640	 -0.105	 -0.050
370.644	 -0.160	 -0.040
370.648	 -0.225	 -0.010
370.652	 -0.260	 -0.035
370.656	 -0.340	 -0.040
370.660	 -0.390	 -0.015
370.664	 -0.420	  0.000
370.668	 -0.415	 -0.015
370.672	 -0.400	 -0.020
370.676	 -0.450	 -0.035
370.680	 -0.470	 -0.020
370.684	 -0.465	 -0.035
370.688	 -0.460	 -0.030
370.692	 -0.450	 -0.020
370.696	 -0.460	 -0.040
370.700	 -0.500	 -0.030
370.704	 -0.515	 -0.050
370.708	 -0.430	 -0.065
370.712	 -0.255	 -0.080
370.716	 -0.015	 -0.075
370.720	  0.220	  0.000
370.724	  0.450	  0.080
370.728	  0.755	 -0.030
370.732	  1.125	 -0.405
370.736	  1.665	 -1.020
370.740	  2.185	 -1.660
370.744	  2.440	 -2.255
370.748	  2.335	 -2.805
370.752	  2.125	 -3.135
370.756	  1.870	 -3.015
370.760	  1.470	 -2.395
370.764	  0.980	 -1.765
370.768	  0.555	 -1.265
370.772	  0.190	 -0.955
370.776	 -0.115	 -0.720
370.780	 -0.420	 -0.540
370.784	 -0.680	 -0.435
370.788	 -0.820	 -0.340
370.792	 -0.865	 -0.280
370.796	 -0.850	 -0.205
370.800	 -0.795	 -0.150
370.804	 -0.755	 -0.070
370.808	 -0.720	  0.000
370.812	 -0.695	  0.065
370.816	 -0.695	  0.090
370.820	 -0.675	  0.125
370.824	 -0.675	  0.155
370.828	 -0.675	  0.175
370.832	 -0.670	  0.200
370.836	 -0.670	  0.185
370.840	 -0.670	  0.200
370.844	 -0.690	  0.215
370.848	 -0.680	  0.240
370.852	 -0.670	  0.235
370.856	 -0.660	  0.245
370.860	 -0.645	  0.265
370.864	 -0.670	  0.270
370.868	 -0.670	  0.275
370.872	 -0.680	  0.325
370.876	 -0.690	  0.300
370.880	 -0.680	  0.335
370.884	 -0.665	  0.340
370.888	 -0.660	  0.350
370.892	 -0.680	  0.375
370.896	 -0.675	  0.405
370.900	 -0.680	  0.435
370.904	 -0.695	  0.455
370.908	 -0.710	  0.455
370.912	 -0.705	  0.495
370.916	 -0.720	  0.510
370.920	 -0.730	  0.540
370.924	 -0.725	  0.595
370.928	 -0.740	  0.635
370.932	 -0.765	  0.665
370.936	 -0.775	  0.690
370.940	 -0.795	  0.705
370.944	 -0.820	  0.735
370.948	 -0.835	  0.760
370.952	 -0.825	  0.745
370.956	 -0.835	  0.780
370.960	 -0.790	  0.810
370.964	 -0.800	  0.795
370.968	 -0.755	  0.805
370.972	 -0.735	  0.750
370.976	 -0.715	  0.715
370.980	 -0.695	  0.660
370.984	 -0.655	  0.565
370.988	 -0.605	  0.520
370.992	 -0.570	  0.455
370.996	 -0.540	  0.390
371.000	 -0.510	  0.320
371.004	 -0.475	  0.270
371.008	 -0.480	  0.215
371.012	 -0.460	  0.160
371.016	 -0.495	  0.140
371.020	 -0.470	  0.095
371.024	 -0.460	  0.065
371.028	 -0.455	  0.060
371.032	 -0.465	  0.045
371.036	 -0.480	  0.025
371.040	 -0.505	  0.010
371.044	 -0.480	  0.005
371.048	 -0.495	  0.000
371.052	 -0.490	  0.000
371.056	 -0.460	 -0.005
371.060	 -0.465	  0.005
371.064	 -0.500	 -0.015
371.068	 -0.500	 -0.010
371.072	 -0.500	  0.000
371.076	 -0.525	  0.010
371.080	 -0.510	 -0.010
371.084	 -0.530	  0.005
371.088	 -0.535	  0.000
371.092	 -0.550	  0.000
371.096	 -0.540	  0.000
371.100	 -0.545	 -0.005
371.104	 -0.540	 -0.005
371.108	 -0.545	  0.000
371.112	 -0.550	 -0.015
371.116	 -0.565	  0.000
371.120	 -0.560	 -0.020
371.124	 -0.555	 -0.015
371.128	 -0.560	  0.000
371.132	 -0.540	 -0.020
371.136	 -0.560	 -0.020
371.140	 -0.555	 -0.010
371.144	 -0.545	  0.005
371.148	 -0.560	 -0.020
371.152	 -0.565	 -0.025
371.156	 -0.550	 -0.030
371.160	 -0.525	 -0.025
371.164	 -0.550	 -0.025
371.168	 -0.520	 -0.040
371.172	 -0.525	 -0.035
371.176	 -0.510	 -0.035
371.180	 -0.500	 -0.055
371.184	 -0.450	 -0.060
371.188	 -0.425	 -0.050
371.192	 -0.395	 -0.035
371.196	 -0.340	  0.000
371.200	 -0.300	  0.025
371.204	 -0.295	  0.035
371.208	 -0.265	  0.055
371.212	 -0.230	  0.070
371.216	 -0.210	  0.050
371.220	 -0.215	  0.030
371.224	 -0.185	  0.020
371.228	 -0.160	 -0.020
371.232	 -0.190	 -0.030
371.236	 -0.205	 -0.045
371.240	 -0.200	 -0.085
371.244	 -0.170	 -0.075
371.248	 -0.130	 -0.100
371.252	 -0.145	 -0.100
371.256	 -0.210	 -0.075
371.260	 -0.280	 -0.070
371.264	 -0.330	 -0.070
371.268	 -0.350	 -0.085
371.272	 -0.360	 -0.085
371.276	 -0.455	 -0.045
371.280	 -0.500	 -0.040
371.284	 -0.510	 -0.045
371.288	 -0.500	 -0.060
371.292	 -0.540	 -0.085
371.296	 -0.515	 -0.055
371.300	 -0.520	 -0.085
371.304	 -0.515	 -0.065
371.308	 -0.535	 -0.060
371.312	 -0.560	 -0.070
371.316	 -0.575	 -0.095
371.320	 -0.530	 -0.085
371.324	 -0.410	 -0.105
371.328	 -0.200	 -0.110
371.332	  0.085	 -0.055
371.336	  0.330	  0.015
371.340	  0.595	  0.015
371.344	  0.915	 -0.255
371.348	  1.355	 -0.810
371.352	  1.890	 -1.440
371.356	  2.320	 -2.080
371.360	  2.400	 -2.655
371.364	  2.250	 -3.105
371.368	  1.985	 -3.235
371.372	  1.675	 -2.805
371.376	  1.190	 -2.170
371.380	  0.720	 -1.585
371.384	  0.350	 -1.180
371.388	  0.020	 -0.890
371.392	 -0.310	 -0.665
371.396	 -0.605	 -0.530
371.400	 -0.790	 -0.435
371.404	 -0.875	 -0.355
371.408	 -0.885	 -0.265
371.412	 -0.835	 -0.215
371.416	 -0.770	 -0.115
371.420	 -0.735	 -0.050
371.424	 -0.710	  0.050
371.428	 -0.705	  0.085
371.432	 -0.720	  0.125
371.436	 -0.725	  0.165
371.440	 -0.705	  0.175
371.444	 -0.665	  0.200
371.448	 -0.665	  0.205
371.452	 -0.675	  0.220
371.456	 -0.680	  0.210
371.460	 -0.655	  0.240
371.464	 -0.660	  0.240
371.468	 -0.640	  0.245
371.472	 -0.645	  0.280
371.476	 -0.645	  0.280
371.480	 -0.660	  0.310
371.484	 -0.660	  0.315
371.488	 -0.645	  0.340
371.492	 -0.650	  0.345
371.496	 -0.645	  0.350
371.500	 -0.660	  0.370
371.504	 -0.655	  0.380
371.508	 -0.640	  0.425
371.512	 -0.670	  0.435
371.516	 -0.655	  0.445
371.520	 -0.670	  0.470
371.524	 -0.675	  0.515
371.528	 -0.695	  0.550
371.532	 -0.700	  0.560
371.536	 -0.720	  0.580
371.540	 -0.720	  0.640
371.544	 -0.720	  0.670
371.548	 -0.740	  0.705
371.552	 -0.720	  0.725
371.556	 -0.730	  0.750
371.560	 -0.730	  0.775
371.564	 -0.775	  0.810
371.568	 -0.790	  0.825
371.572	 -0.790	  0.830
371.576	 -0.750	  0.855
371.580	 -0.745	  0.855
371.584	 -0.715	  0.805
371.588	 -0.670	  0.770
371.592	 -0.630	  0.710
371.596	 -0.580	  0.660
371.600	 -0.555	  0.575
371.604	 -0.520	  0.510
371.608	 -0.470	  0.445
371.612	 -0.450	  0.360
371.616	 -0.450	  0.330
371.620	 -0.445	  0.270
371.624	 -0.430	  0.195
371.628	 -0.410	  0.170
371.632	 -0.415	  0.140
371.636	 -0.420	  0.110
371.640	 -0.380	  0.090
371.644	 -0.405	  0.070
371.648	 -0.420	  0.040
371.652	 -0.410	  0.035
371.656	 -0.410	  0.015
371.660	 -0.415	  0.015
371.664	 -0.410	  0.010
371.668	 -0.425	  0.020
371.672	 -0.415	  0.020
371.676	 -0.440	  0.010
371.680	 -0.440	  0.010
371.684	 -0.425	  0.020
371.688	 -0.450	  0.010
371.692	 -0.470	  0.010
371.696	 -0.470	  0.020
371.700	 -0.470	  0.000
371.704	 -0.460	  0.000
371.708	 -0.455	  0.000
371.712	 -0.470	  0.005
371.716	 -0.475	  0.015
371.720	 -0.475	  0.015
371.724	 -0.485	  0.000
371.728	 -0.485	  0.015
371.732	 -0.465	 -0.005
371.736	 -0.465	 -0.010
371.740	 -0.450	  0.000
371.744	 -0.480	  0.005
371.748	 -0.475	  0.005
371.752	 -0.465	  0.000
371.756	 -0.440	  0.000
371.760	 -0.445	  0.000
371.764	 -0.465	  0.000
371.768	 -0.480	 -0.030
371.772	 -0.460	 -0.025
371.776	 -0.460	 -0.015
371.780	 -0.450	 -0.030
371.784	 -0.445	 -0.065
371.788	 -0.435	 -0.060
371.792	 -0.400	 -0.045
371.796	 -0.355	 -0.040
371.800	 -0.300	 -0.025
371.804	 -0.255	 -0.015
371.808	 -0.235	  0.020
371.812	 -0.225	  0.015
371.816	 -0.205	  0.050
371.820	 -0.195	  0.075
371.824	 -0.185	  0.040
371.828	 -0.180	  0.015
371.832	 -0.155	 -0.010
371.836	 -0.110	 -0.050
371.840	 -0.135	 -0.065
371.844	 -0.130	 -0.085
371.848	 -0.140	 -0.085
371.852	 -0.135	 -0.130
371.856	 -0.125	 -0.125
371.860	 -0.130	 -0.125
371.864	 -0.180	 -0.130
371.868	 -0.240	 -0.125
371.872	 -0.300	 -0.120
371.876	 -0.315	 -0.140
371.880	 -0.375	 -0.125
371.884	 -0.445	 -0.090
371.888	 -0.465	 -0.090
371.892	 -0.475	 -0.100
371.896	 -0.495	 -0.115
371.900	 -0.530	 -0.130
371.904	 -0.525	 -0.105
371.908	 -0.480	 -0.150
371.912	 -0.495	 -0.120
371.916	 -0.505	 -0.125
371.920	 -0.530	 -0.120
371.924	 -0.560	 -0.140
371.928	 -0.525	 -0.130
371.932	 -0.395	 -0.185
371.936	 -0.170	 -0.180
371.940	  0.140	 -0.155
371.944	  0.370	 -0.055
371.948	  0.610	 -0.055
371.952	  0.940	 -0.305
371.956	  1.395	 -0.830
371.960	  1.900	 -1.465
371.964	  2.300	 -2.105
371.968	  2.305	 -2.730
371.972	  2.110	 -3.175
371.976	  1.860	 -3.230
371.980	  1.510	 -2.735
371.984	  1.050	 -2.100
371.988	  0.595	 -1.530
371.992	  0.220	 -1.175
371.996	 -0.080	 -0.900
372.000	 -0.380	 -0.695
372.004	 -0.640	 -0.540
372.008	 -0.860	 -0.465
372.012	 -0.875	 -0.370
372.016	 -0.870	 -0.290
372.020	 -0.820	 -0.240
372.024	 -0.770	 -0.150
372.028	 -0.740	 -0.080
372.032	 -0.730	 -0.025
372.036	 -0.710	  0.025
372.040	 -0.715	  0.055
372.044	 -0.680	  0.095
372.048	 -0.685	  0.105
372.052	 -0.670	  0.105
372.056	 -0.660	  0.130
372.060	 -0.655	  0.155
372.064	 -0.670	  0.165
372.068	 -0.670	  0.195
372.072	 -0.675	  0.195
372.076	 -0.665	  0.210
372.080	 -0.665	  0.240
372.084	 -0.640	  0.245
372.088	 -0.655	  0.250
372.092	 -0.640	  0.275
372.096	 -0.635	  0.270
372.100	 -0.635	  0.310
372.104	 -0.660	  0.340
372.108	 -0.655	  0.345
372.112	 -0.660	  0.325
372.116	 -0.650	  0.370
372.120	 -0.655	  0.400
372.124	 -0.660	  0.425
372.128	 -0.665	  0.455
372.132	 -0.645	  0.495
372.136	 -0.655	  0.520
372.140	 -0.700	  0.535
372.144	 -0.710	  0.600
372.148	 -0.710	  0.610
372.152	 -0.710	  0.640
372.156	 -0.750	  0.665
372.160	 -0.775	  0.690
372.164	 -0.780	  0.725
372.168	 -0.795	  0.755
372.172	 -0.785	  0.780
372.176	 -0.780	  0.795
372.180	 -0.770	  0.810
372.184	 -0.750	  0.780
372.188	 -0.755	  0.755
372.192	 -0.720	  0.760
372.196	 -0.675	  0.730
372.200	 -0.640	  0.675
372.204	 -0.595	  0.620
372.208	 -0.580	  0.555
372.212	 -0.525	  0.485
372.216	 -0.450	  0.410
372.220	 -0.420	  0.350
372.224	 -0.425	  0.310
372.228	 -0.410	  0.250
372.232	 -0.420	  0.205
372.236	 -0.395	  0.155
372.240	 -0.380	  0.130
372.244	 -0.390	  0.085
372.248	 -0.400	  0.075
372.252	 -0.400	  0.060
372.256	 -0.420	  0.060
372.260	 -0.415	  0.020
372.264	 -0.415	  0.035
372.268	 -0.400	  0.025
372.272	 -0.410	  0.040
372.276	 -0.410	  0.035
372.280	 -0.400	  0.005
372.284	 -0.395	  0.010
372.288	 -0.410	  0.030
372.292	 -0.415	  0.015
372.296	 -0.405	  0.005
372.300	 -0.395	  0.010
372.304	 -0.405	  0.005
372.308	 -0.420	  0.025
372.312	 -0.425	  0.045
372.316	 -0.450	  0.040
372.320	 -0.440	  0.025
372.324	 -0.450	  0.025
372.328	 -0.425	  0.010
372.332	 -0.435	  0.015
372.336	 -0.430	  0.025
372.340	 -0.420	  0.030
372.344	 -0.425	  0.010
372.348	 -0.430	  0.015
372.352	 -0.425	  0.025
372.356	 -0.425	  0.020
372.360	 -0.440	  0.010
372.364	 -0.440	  0.015
372.368	 -0.420	 -0.005
372.372	 -0.420	  0.005
372.376	 -0.420	  0.020
372.380	 -0.410	  0.020
372.384	 -0.410	  0.020
372.388	 -0.395	  0.000
372.392	 -0.360	 -0.010
372.396	 -0.295	 -0.010
372.400	 -0.270	  0.005
372.404	 -0.260	  0.020
372.408	 -0.220	  0.030
372.412	 -0.185	  0.080
372.416	 -0.160	  0.080
372.420	 -0.150	  0.075
372.424	 -0.130	  0.090
372.428	 -0.120	  0.090
372.432	 -0.105	  0.075
372.436	 -0.060	  0.050
372.440	 -0.045	  0.015
372.444	 -0.070	  0.010
372.448	 -0.070	  0.000
372.452	 -0.065	 -0.035
372.456	 -0.040	 -0.070
372.460	 -0.035	 -0.080
372.464	 -0.020	 -0.075
372.468	 -0.105	 -0.055
372.472	 -0.155	 -0.070
372.476	 -0.210	 -0.035
372.480	 -0.225	 -0.030
372.484	 -0.295	 -0.040
372.488	 -0.350	 -0.040
372.492	 -0.370	 -0.020
372.496	 -0.375	 -0.030
372.500	 -0.370	 -0.050
372.504	 -0.400	 -0.065
372.508	 -0.415	 -0.080
372.512	 -0.410	 -0.090
372.516	 -0.400	 -0.075
372.520	 -0.410	 -0.070
372.524	 -0.400	 -0.075
372.528	 -0.455	 -0.085
372.532	 -0.415	 -0.080
372.536	 -0.320	 -0.105
372.540	 -0.130	 -0.110
372.544	  0.125	 -0.110
372.548	  0.410	 -0.045
372.552	  0.635	  0.025
372.556	  0.910	 -0.060
372.560	  1.300	 -0.470
372.564	  1.785	 -1.045
372.568	  2.290	 -1.685
372.572	  2.465	 -2.325
372.576	  2.350	 -2.860
372.580	  2.105	 -3.190
372.584	  1.790	 -2.985
372.588	  1.330	 -2.350
372.592	  0.870	 -1.750
372.596	  0.490	 -1.325
372.600	  0.155	 -0.985
372.604	 -0.170	 -0.730
372.608	 -0.485	 -0.580
372.612	 -0.660	 -0.460
372.616	 -0.750	 -0.370
372.620	 -0.750	 -0.295
372.624	 -0.690	 -0.230
372.628	 -0.645	 -0.135
372.632	 -0.600	 -0.055
372.636	 -0.575	  0.005
372.640	 -0.545	  0.060
372.644	 -0.535	  0.105
372.648	 -0.530	  0.120
372.652	 -0.530	  0.155
372.656	 -0.545	  0.175
372.660	 -0.525	  0.180
372.664	 -0.520	  0.220
372.668	 -0.490	  0.215
372.672	 -0.500	  0.235
372.676	 -0.500	  0.265
372.680	 -0.490	  0.265
372.684	 -0.495	  0.275
372.688	 -0.490	  0.275
372.692	 -0.475	  0.275
372.696	 -0.485	  0.290
372.700	 -0.485	  0.310
372.704	 -0.485	  0.335
372.708	 -0.480	  0.350
372.712	 -0.495	  0.355
372.716	 -0.515	  0.375
372.720	 -0.500	  0.390
372.724	 -0.480	  0.430
372.728	 -0.480	  0.425
372.732	 -0.485	  0.475
372.736	 -0.505	  0.490
372.740	 -0.505	  0.565
372.744	 -0.530	  0.575
372.748	 -0.540	  0.590
372.752	 -0.555	  0.605
372.756	 -0.565	  0.655
372.760	 -0.590	  0.675
372.764	 -0.595	  0.730
372.768	 -0.595	  0.760
372.772	 -0.620	  0.770
372.776	 -0.610	  0.800
372.780	 -0.600	  0.810
372.784	 -0.595	  0.820
372.788	 -0.590	  0.825
372.792	 -0.580	  0.840
372.796	 -0.580	  0.815
372.800	 -0.520	  0.815
372.804	 -0.500	  0.735
372.808	 -0.465	  0.670
372.812	 -0.405	  0.625
372.816	 -0.390	  0.565
372.820	 -0.345	  0.465
372.824	 -0.320	  0.380
372.828	 -0.320	  0.325
372.832	 -0.290	  0.265
372.836	 -0.255	  0.220
372.840	 -0.250	  0.185
372.844	 -0.265	  0.155
372.848	 -0.285	  0.120
372.852	 -0.280	  0.070
372.856	 -0.280	  0.050
372.860	 -0.270	  0.035
372.864	 -0.290	  0.045
372.868	 -0.300	  0.005
372.872	 -0.280	  0.010
372.876	 -0.300	  0.005
372.880	 -0.305	 -0.020
372.884	 -0.295	 -0.010
372.888	 -0.315	  0.000
372.892	 -0.340	 -0.020
372.896	 -0.320	 -0.005
372.900	 -0.340	  0.000
372.904	 -0.345	  0.005
372.908	 -0.345	  0.000
372.912	 -0.360	 -0.010
372.916	 -0.355	 -0.030
372.920	 -0.375	 -0.020
372.924	 -0.350	 -0.030
372.928	 -0.360	  0.000
372.932	 -0.380	  0.020
372.936	 -0.385	  0.010
372.940	 -0.365	  0.000
372.944	 -0.360	 -0.015
372.948	 -0.385	  0.000
372.952	 -0.405	  0.000
372.956	 -0.385	  0.000
372.960	 -0.385	 -0.005
372.964	 -0.375	 -0.020
372.968	 -0.380	 -0.025
372.972	 -0.380	 -0.030
372.976	 -0.370	 -0.035
372.980	 -0.365	 -0.040
372.984	 -0.360	 -0.020
372.988	 -0.355	 -0.035
372.992	 -0.320	 -0.040
372.996	 -0.300	 -0.035
373.000	 -0.270	 -0.010
373.004	 -0.225	 -0.040
373.008	 -0.210	 -0.020
373.012	 -0.140	  0.000
373.016	 -0.135	  0.005
373.020	 -0.130	  0.040
373.024	 -0.100	  0.055
373.028	 -0.095	  0.080
373.032	 -0.090	  0.050
373.036	 -0.060	  0.030
373.040	 -0.040	  0.005
373.044	 -0.025	 -0.020
373.048	 -0.025	 -0.050
373.052	 -0.010	 -0.060
373.056	 -0.030	 -0.085
373.060	 -0.015	 -0.100
373.064	 -0.005	 -0.105
373.068	  0.020	 -0.135
373.072	  0.010	 -0.130
373.076	 -0.060	 -0.085
373.080	 -0.130	 -0.080
373.084	 -0.185	 -0.095
373.088	 -0.235	 -0.100
373.092	 -0.285	 -0.110
373.096	 -0.325	 -0.065
373.100	 -0.345	 -0.060
373.104	 -0.325	 -0.075
373.108	 -0.355	 -0.100
373.112	 -0.375	 -0.075
373.116	 -0.375	 -0.070
373.120	 -0.365	 -0.080
373.124	 -0.350	 -0.105
373.128	 -0.365	 -0.085
373.132	 -0.400	 -0.095
373.136	 -0.400	 -0.105
373.140	 -0.350	 -0.110
373.144	 -0.220	 -0.120
373.148	  0.010	 -0.130
373.152	  0.300	 -0.105
373.156	  0.555	 -0.020
373.160	  0.790	 -0.020
373.164	  1.140	 -0.290
373.168	  1.605	 -0.860
373.172	  2.140	 -1.500
373.176	  2.530	 -2.140
373.180	  2.560	 -2.780
373.184	  2.395	 -3.260
373.188	  2.130	 -3.335
373.192	  1.765	 -2.835
373.196	  1.265	 -2.200
373.200	  0.795	 -1.635
373.204	  0.430	 -1.245
373.208	  0.075	 -0.975
373.212	 -0.255	 -0.770
373.216	 -0.540	 -0.590
373.220	 -0.705	 -0.480
373.224	 -0.770	 -0.370
373.228	 -0.765	 -0.295
373.232	 -0.725	 -0.195
373.236	 -0.680	 -0.140
373.240	 -0.630	 -0.055
373.244	 -0.595	  0.010
373.248	 -0.580	  0.075
373.252	 -0.580	  0.125
373.256	 -0.590	  0.155
373.260	 -0.575	  0.175
373.264	 -0.555	  0.185
373.268	 -0.545	  0.230
373.272	 -0.550	  0.245
373.276	 -0.540	  0.235
373.280	 -0.520	  0.245
373.284	 -0.550	  0.270
373.288	 -0.535	  0.290
373.292	 -0.540	  0.300
373.296	 -0.530	  0.315
373.300	 -0.525	  0.320
373.304	 -0.515	  0.325
373.308	 -0.510	  0.365
373.312	 -0.495	  0.375
373.316	 -0.495	  0.365
373.320	 -0.500	  0.370
373.324	 -0.505	  0.425
373.328	 -0.490	  0.440
373.332	 -0.490	  0.465
373.336	 -0.520	  0.495
373.340	 -0.540	  0.530
373.344	 -0.525	  0.530
373.348	 -0.530	  0.560
373.352	 -0.555	  0.610
373.356	 -0.570	  0.660
373.360	 -0.595	  0.700
373.364	 -0.590	  0.725
373.368	 -0.600	  0.750
373.372	 -0.630	  0.790
373.376	 -0.635	  0.835
373.380	 -0.620	  0.875
373.384	 -0.630	  0.895
373.388	 -0.665	  0.920
373.392	 -0.625	  0.935
373.396	 -0.610	  0.940
373.400	 -0.625	  0.955
373.404	 -0.605	  0.930
373.408	 -0.585	  0.885
373.412	 -0.520	  0.840
373.416	 -0.475	  0.800
373.420	 -0.415	  0.715
373.424	 -0.385	  0.635
373.428	 -0.320	  0.555
373.432	 -0.315	  0.485
373.436	 -0.300	  0.420
373.440	 -0.260	  0.375
373.444	 -0.255	  0.305
373.448	 -0.235	  0.255
373.452	 -0.225	  0.215
373.456	 -0.235	  0.175
373.460	 -0.240	  0.135
373.464	 -0.245	  0.120
373.468	 -0.270	  0.110
373.472	 -0.265	  0.090
373.476	 -0.235	  0.080
373.480	 -0.225	  0.060
373.484	 -0.235	  0.045
373.488	 -0.245	  0.065
373.492	 -0.250	  0.085
373.496	 -0.250	  0.075
373.500	 -0.265	  0.045
373.504	 -0.255	  0.050
373.508	 -0.250	  0.050
373.512	 -0.255	  0.060
373.516	 -0.300	  0.070
373.520	 -0.300	  0.055
373.524	 -0.280	  0.045
373.528	 -0.280	  0.060
373.532	 -0.290	  0.070
373.536	 -0.310	  0.055
373.540	 -0.295	  0.060
373.544	 -0.310	  0.040
373.548	 -0.310	  0.060
373.552	 -0.320	  0.050
373.556	 -0.310	  0.060
373.560	 -0.300	  0.050
373.564	 -0.285	  0.045
373.568	 -0.300	  0.040
373.572	 -0.320	  0.045
373.576	 -0.300	  0.055
373.580	 -0.275	  0.045
373.584	 -0.280	  0.040
373.588	 -0.260	  0.035
373.592	 -0.250	  0.020
373.596	 -0.240	  0.005
373.600	 -0.235	 -0.005
373.604	 -0.195	  0.025
373.608	 -0.175	  0.025
373.612	 -0.130	  0.040
373.616	 -0.110	  0.080
373.620	 -0.105	  0.055
373.624	 -0.070	  0.095
373.628	 -0.055	  0.095
373.632	 -0.015	  0.080
373.636	  0.015	  0.090
373.640	  0.035	  0.085
373.644	  0.060	  0.070
373.648	  0.075	  0.055
373.652	  0.095	  0.035
373.656	  0.120	  0.025
373.660	  0.105	  0.000
373.664	  0.110	 -0.015
373.668	  0.135	 -0.025
373.672	  0.135	 -0.055
373.676	  0.105	 -0.075
373.680	  0.060	 -0.045
373.684	  0.000	 -0.045
373.688	 -0.030	 -0.030
373.692	 -0.110	 -0.050
373.696	 -0.165	 -0.055
373.700	 -0.195	 -0.020
373.704	 -0.215	 -0.015
373.708	 -0.215	 -0.020
373.712	 -0.245	 -0.055
373.716	 -0.245	 -0.045
373.720	 -0.230	 -0.055
373.724	 -0.260	 -0.055
373.728	 -0.270	 -0.060
373.732	 -0.305	 -0.065
373.736	 -0.315	 -0.070
373.740	 -0.350	 -0.075
373.744	 -0.325	 -0.105
373.748	 -0.180	 -0.105
373.752	  0.050	 -0.105
373.756	  0.330	 -0.100
373.760	  0.635	 -0.005
373.764	  0.915	  0.045
373.768	  1.260	 -0.130
373.772	  1.755	 -0.630
373.776	  2.290	 -1.260
373.780	  2.655	 -1.900
373.784	  2.710	 -2.515
373.788	  2.550	 -3.015
373.792	  2.305	 -3.170
373.796	  1.975	 -2.755
373.800	  1.495	 -2.120
373.804	  1.045	 -1.580
373.808	  0.650	 -1.165
373.812	  0.310	 -0.855
373.816	 -0.060	 -0.640
373.820	 -0.380	 -0.510
373.824	 -0.570	 -0.395
373.828	 -0.645	 -0.305
373.832	 -0.640	 -0.260
373.836	 -0.610	 -0.190
373.840	 -0.545	 -0.105
373.844	 -0.515	 -0.030
373.848	 -0.490	  0.020
373.852	 -0.480	  0.075
373.856	 -0.455	  0.120
373.860	 -0.445	  0.140
373.864	 -0.440	  0.160
373.868	 -0.465	  0.180
373.872	 -0.445	  0.200
373.876	 -0.435	  0.215
373.880	 -0.450	  0.215
373.884	 -0.450	  0.220
373.888	 -0.435	  0.210
373.892	 -0.410	  0.220
373.896	 -0.435	  0.255
373.900	 -0.430	  0.260
373.904	 -0.415	  0.275
373.908	 -0.430	  0.295
373.912	 -0.425	  0.315
373.916	 -0.415	  0.310
373.920	 -0.430	  0.335
373.924	 -0.420	  0.330
373.928	 -0.425	  0.345
373.932	 -0.415	  0.390
373.936	 -0.400	  0.405
373.940	 -0.405	  0.435
373.944	 -0.415	  0.465
373.948	 -0.420	  0.500
373.952	 -0.435	  0.500
373.956	 -0.470	  0.520
373.960	 -0.460	  0.570
373.964	 -0.455	  0.590
373.968	 -0.465	  0.615
373.972	 -0.505	  0.645
373.976	 -0.535	  0.685
373.980	 -0.570	  0.690
373.984	 -0.545	  0.730
373.988	 -0.525	  0.750
373.992	 -0.510	  0.775
373.996	 -0.510	  0.780
374.000	 -0.530	  0.805
374.004	 -0.505	  0.795
374.008	 -0.490	  0.770
374.012	 -0.465	  0.725
374.016	 -0.415	  0.685
374.020	 -0.360	  0.630
374.024	 -0.310	  0.550
374.028	 -0.285	  0.510
374.032	 -0.235	  0.440
374.036	 -0.220	  0.390
374.040	 -0.190	  0.335
374.044	 -0.175	  0.265
374.048	 -0.160	  0.220
374.052	 -0.150	  0.180
374.056	 -0.130	  0.135
374.060	 -0.150	  0.085
374.064	 -0.145	  0.055
374.068	 -0.155	  0.055
374.072	 -0.145	  0.035
374.076	 -0.175	  0.015
374.080	 -0.175	  0.005
374.084	 -0.175	  0.000
374.088	 -0.175	 -0.020
374.092	 -0.155	 -0.010
374.096	 -0.175	  0.000
374.100	 -0.175	 -0.020
374.104	 -0.175	 -0.035
374.108	 -0.165	 -0.030
374.112	 -0.175	 -0.050
374.116	 -0.180	 -0.030
374.120	 -0.205	 -0.030
374.124	 -0.190	 -0.035
374.128	 -0.190	 -0.030
374.132	 -0.200	 -0.020
374.136	 -0.220	 -0.035
374.140	 -0.230	 -0.020
374.144	 -0.225	 -0.035
374.148	 -0.215	 -0.030
374.152	 -0.245	 -0.050
374.156	 -0.255	 -0.030
374.160	 -0.255	 -0.015
374.164	 -0.245	 -0.045
374.168	 -0.250	 -0.035
374.172	 -0.235	 -0.020
374.176	 -0.210	 -0.045
374.180	 -0.225	 -0.035
374.184	 -0.250	 -0.060
374.188	 -0.220	 -0.065
374.192	 -0.210	 -0.040
374.196	 -0.215	 -0.045
374.200	 -0.215	 -0.055
374.204	 -0.210	 -0.075
374.208	 -0.195	 -0.090
374.212	 -0.130	 -0.070
374.216	 -0.090	 -0.065
374.220	 -0.070	 -0.055
374.224	 -0.040	 -0.055
374.228	 -0.005	 -0.030
374.232	  0.040	 -0.005
374.236	  0.065	  0.015
374.240	  0.070	  0.025
374.244	  0.085	  0.015
374.248	  0.105	  0.010
374.252	  0.135	  0.000
374.256	  0.135	 -0.035
374.260	  0.130	 -0.050
374.264	  0.140	 -0.085
374.268	  0.120	 -0.100
374.272	  0.160	 -0.095
374.276	  0.185	 -0.125
374.280	  0.190	 -0.125
374.284	  0.180	 -0.125
374.288	  0.110	 -0.120
374.292	  0.030	 -0.080
374.296	 -0.015	 -0.095
374.300	 -0.070	 -0.100
374.304	 -0.110	 -0.105
374.308	 -0.160	 -0.065
374.312	 -0.165	 -0.080
374.316	 -0.165	 -0.080
374.320	 -0.185	 -0.105
374.324	 -0.225	 -0.115
374.328	 -0.210	 -0.115
374.332	 -0.210	 -0.145
374.336	 -0.195	 -0.125
374.340	 -0.205	 -0.110
374.344	 -0.220	 -0.140
374.348	 -0.225	 -0.115
374.352	 -0.160	 -0.135
374.356	 -0.015	 -0.140
374.360	  0.205	 -0.170
374.364	  0.480	 -0.125
374.368	  0.740	 -0.040
374.372	  0.985	 -0.080
374.376	  1.335	 -0.375
374.380	  1.825	 -0.925
374.384	  2.335	 -1.565
374.388	  2.615	 -2.205
374.392	  2.545	 -2.815
374.396	  2.340	 -3.205
374.400	  2.075	 -3.180
374.404	  1.695	 -2.655
374.408	  1.230	 -2.020
374.412	  0.805	 -1.485
374.416	  0.465	 -1.135
374.420	  0.175	 -0.880
374.424	 -0.155	 -0.690
374.428	 -0.435	 -0.525
374.432	 -0.570	 -0.450
374.436	 -0.590	 -0.365
374.440	 -0.565	 -0.305
374.444	 -0.510	 -0.225
374.448	 -0.460	 -0.150
374.452	 -0.440	 -0.080
374.456	 -0.420	  0.000
374.460	 -0.430	  0.040
374.464	 -0.415	  0.070
374.468	 -0.405	  0.090
374.472	 -0.385	  0.120
374.476	 -0.365	  0.145
374.480	 -0.360	  0.165
374.484	 -0.365	  0.165
374.488	 -0.380	  0.175
374.492	 -0.365	  0.210
374.496	 -0.370	  0.200
374.500	 -0.375	  0.240
374.504	 -0.355	  0.230
374.508	 -0.355	  0.240
374.512	 -0.360	  0.265
374.516	 -0.405	  0.265
374.520	 -0.395	  0.260
374.524	 -0.390	  0.270
374.528	 -0.385	  0.295
374.532	 -0.380	  0.340
374.536	 -0.375	  0.355
374.540	 -0.355	  0.365
374.544	 -0.365	  0.395
374.548	 -0.375	  0.410
374.552	 -0.380	  0.430
374.556	 -0.400	  0.465
374.560	 -0.425	  0.475
374.564	 -0.425	  0.515
374.568	 -0.435	  0.540
374.572	 -0.450	  0.555
374.576	 -0.475	  0.630
374.580	 -0.495	  0.670
374.584	 -0.490	  0.695
374.588	 -0.505	  0.705
374.592	 -0.515	  0.750
374.596	 -0.495	  0.745
374.600	 -0.535	  0.780
374.604	 -0.490	  0.775
374.608	 -0.485	  0.780
374.612	 -0.465	  0.760
374.616	 -0.420	  0.720
374.620	 -0.385	  0.685
374.624	 -0.340	  0.655
374.628	 -0.300	  0.590
374.632	 -0.240	  0.535
374.636	 -0.210	  0.440
374.640	 -0.185	  0.380
374.644	 -0.160	  0.330
374.648	 -0.130	  0.265
374.652	 -0.135	  0.210
374.656	 -0.125	  0.150
374.660	 -0.120	  0.100
374.664	 -0.095	  0.060
374.668	 -0.105	  0.055
374.672	 -0.095	  0.020
374.676	 -0.115	  0.000
374.680	 -0.130	 -0.015
374.684	 -0.120	 -0.010
374.688	 -0.135	 -0.020
374.692	 -0.135	 -0.035
374.696	 -0.120	 -0.050
374.700	 -0.135	 -0.065
374.704	 -0.140	 -0.040
374.708	 -0.130	 -0.040
374.712	 -0.130	 -0.050
374.716	 -0.140	 -0.065
374.720	 -0.175	 -0.045
374.724	 -0.185	 -0.040
374.728	 -0.180	 -0.060
374.732	 -0.190	 -0.040
374.736	 -0.185	 -0.060
374.740	 -0.225	 -0.045
374.744	 -0.210	 -0.050
374.748	 -0.215	 -0.050
374.752	 -0.200	 -0.055
374.756	 -0.220	 -0.050
374.760	 -0.205	 -0.045
374.764	 -0.210	 -0.065
374.768	 -0.215	 -0.065
374.772	 -0.200	 -0.050
374.776	 -0.205	 -0.060
374.780	 -0.210	 -0.065
374.784	 -0.215	 -0.075
374.788	 -0.200	 -0.065
374.792	 -0.200	 -0.090
374.796	 -0.205	 -0.080
374.800	 -0.195	 -0.090
374.804	 -0.195	 -0.095
374.808	 -0.190	 -0.105
374.812	 -0.165	 -0.105
374.816	 -0.120	 -0.115
374.820	 -0.065	 -0.090
374.824	 -0.050	 -0.080
374.828	 -0.035	 -0.090
374.832	  0.005	 -0.080
374.836	  0.020	 -0.035
374.840	  0.045	 -0.010
374.844	  0.085	 -0.035
374.848	  0.080	 -0.005
374.852	  0.100	 -0.005
374.856	  0.110	 -0.045
374.860	  0.150	 -0.080
374.864	  0.150	 -0.110
374.868	  0.130	 -0.115
374.872	  0.130	 -0.150
374.876	  0.120	 -0.175
374.880	  0.140	 -0.215
374.884	  0.190	 -0.235
374.888	  0.155	 -0.210
374.892	  0.075	 -0.195
374.896	  0.020	 -0.170
374.900	 -0.040	 -0.160
374.904	 -0.060	 -0.175
374.908	 -0.115	 -0.165
374.912	 -0.160	 -0.155
374.916	 -0.195	 -0.145
374.920	 -0.225	 -0.135
374.924	 -0.235	 -0.150
374.928	 -0.215	 -0.180
374.932	 -0.215	 -0.165
374.936	 -0.210	 -0.150
374.940	 -0.220	 -0.175
374.944	 -0.235	 -0.180
374.948	 -0.285	 -0.190
374.952	 -0.270	 -0.185
374.956	 -0.230	 -0.205
374.960	 -0.050	 -0.240
374.964	  0.185	 -0.240
374.968	  0.455	 -0.185
374.972	  0.705	 -0.115
374.976	  0.935	 -0.145
374.980	  1.275	 -0.420
374.984	  1.725	 -0.975
374.988	  2.270	 -1.615
374.992	  2.610	 -2.255
374.996	  2.595	 -2.885
375.000	  2.390	 -3.335
375.004	  2.115	 -3.360
375.008	  1.715	 -2.865
375.012	  1.235	 -2.230
375.016	  0.800	 -1.675
375.020	  0.435	 -1.290
375.024	  0.140	 -1.025
375.028	 -0.155	 -0.825
375.032	 -0.405	 -0.660
375.036	 -0.565	 -0.545
375.040	 -0.610	 -0.450
375.044	 -0.605	 -0.395
375.048	 -0.545	 -0.320
375.052	 -0.485	 -0.235
375.056	 -0.450	 -0.140
375.060	 -0.440	 -0.095
375.064	 -0.430	 -0.025
375.068	 -0.410	  0.025
375.072	 -0.415	  0.065
375.076	 -0.410	  0.070
375.080	 -0.420	  0.090
375.084	 -0.400	  0.090
375.088	 -0.415	  0.085
375.092	 -0.385	  0.130
375.096	 -0.390	  0.145
375.100	 -0.395	  0.125
375.104	 -0.370	  0.130
375.108	 -0.375	  0.155
375.112	 -0.375	  0.165
375.116	 -0.385	  0.185
375.120	 -0.390	  0.195
375.124	 -0.390	  0.245
375.128	 -0.380	  0.230
375.132	 -0.385	  0.235
375.136	 -0.365	  0.255
375.140	 -0.375	  0.290
375.144	 -0.375	  0.295
375.148	 -0.395	  0.325
375.152	 -0.395	  0.345
375.156	 -0.410	  0.365
375.160	 -0.430	  0.405
375.164	 -0.420	  0.440
375.168	 -0.430	  0.470
375.172	 -0.420	  0.495
375.176	 -0.465	  0.540
375.180	 -0.460	  0.575
375.184	 -0.485	  0.615
375.188	 -0.510	  0.635
375.192	 -0.510	  0.660
375.196	 -0.525	  0.700
375.200	 -0.540	  0.730
375.204	 -0.530	  0.750
375.208	 -0.525	  0.770
375.212	 -0.515	  0.775
375.216	 -0.485	  0.770
375.220	 -0.480	  0.765
375.224	 -0.450	  0.725
375.228	 -0.415	  0.680
375.232	 -0.350	  0.610
375.236	 -0.320	  0.560
375.240	 -0.275	  0.460
375.244	 -0.225	  0.415
375.248	 -0.210	  0.345
375.252	 -0.185	  0.265
375.256	 -0.155	  0.205
375.260	 -0.130	  0.145
375.264	 -0.125	  0.105
375.268	 -0.145	  0.050
375.272	 -0.160	  0.040
375.276	 -0.145	  0.015
375.280	 -0.120	 -0.030
375.284	 -0.120	 -0.025
375.288	 -0.130	 -0.040
375.292	 -0.125	 -0.060
375.296	 -0.135	 -0.050
375.300	 -0.115	 -0.035
375.304	 -0.120	 -0.060
375.308	 -0.160	 -0.045
375.312	 -0.160	 -0.065
375.316	 -0.175	 -0.050
375.320	 -0.160	 -0.070
375.324	 -0.180	 -0.075
375.328	 -0.180	 -0.060
375.332	 -0.180	 -0.055
375.336	 -0.190	 -0.050
375.340	 -0.200	 -0.065
375.344	 -0.185	 -0.080
375.348	 -0.210	 -0.070
375.352	 -0.190	 -0.070
375.356	 -0.200	 -0.075
375.360	 -0.215	 -0.070
375.364	 -0.225	 -0.045
375.368	 -0.220	 -0.070
375.372	 -0.210	 -0.065
375.376	 -0.200	 -0.050
375.380	 -0.205	 -0.070
375.384	 -0.185	 -0.060
375.388	 -0.185	 -0.080
375.392	 -0.190	 -0.080
375.396	 -0.195	 -0.050
375.400	 -0.190	 -0.065
375.404	 -0.200	 -0.035
375.408	 -0.205	 -0.040
375.412	 -0.180	 -0.075
375.416	 -0.160	 -0.080
375.420	 -0.135	 -0.100
375.424	 -0.120	 -0.095
375.428	 -0.085	 -0.075
375.432	 -0.050	 -0.060
375.436	  0.005	 -0.055
375.440	  0.010	 -0.055
375.444	  0.035	 -0.045
375.448	  0.065	 -0.010
375.452	  0.095	 -0.020
375.456	  0.100	 -0.020
375.460	  0.130	 -0.005
375.464	  0.140	  0.015
375.468	  0.170	 -0.025
375.472	  0.165	 -0.065
375.476	  0.145	 -0.065
375.480	  0.145	 -0.080
375.484	  0.145	 -0.125
375.488	  0.165	 -0.155
375.492	  0.175	 -0.150
375.496	  0.170	 -0.150
375.500	  0.105	 -0.150
375.504	  0.055	 -0.135
375.508	  0.020	 -0.125
375.512	 -0.025	 -0.120
375.516	 -0.085	 -0.130
375.520	 -0.130	 -0.100
375.524	 -0.160	 -0.105
375.528	 -0.155	 -0.125
375.532	 -0.190	 -0.130
375.536	 -0.190	 -0.145
375.540	 -0.200	 -0.130
375.544	 -0.205	 -0.140
375.548	 -0.190	 -0.125
375.552	 -0.200	 -0.145
375.556	 -0.260	 -0.125
375.560	 -0.290	 -0.125
375.564	 -0.245	 -0.145
375.568	 -0.120	 -0.155
375.572	  0.085	 -0.185
375.576	  0.375	 -0.150
375.580	  0.625	 -0.065
375.584	  0.840	 -0.030
375.588	  1.140	 -0.225
375.592	  1.575	 -0.670
375.596	  2.130	 -1.310
375.600	  2.585	 -1.950
375.604	  2.665	 -2.590
375.608	  2.475	 -3.145
375.612	  2.220	 -3.400
375.616	  1.855	 -3.075
375.620	  1.375	 -2.440
375.624	  0.925	 -1.805
375.628	  0.540	 -1.380
375.632	  0.195	 -1.050
375.636	 -0.115	 -0.815
375.640	 -0.400	 -0.640
375.644	 -0.560	 -0.530
375.648	 -0.620	 -0.420
375.652	 -0.630	 -0.355
375.656	 -0.575	 -0.285
375.660	 -0.535	 -0.190
375.664	 -0.490	 -0.120
375.668	 -0.455	 -0.035
375.672	 -0.445	  0.015
375.676	 -0.440	  0.055
375.680	 -0.425	  0.085
375.684	 -0.420	  0.100
375.688	 -0.390	  0.130
375.692	 -0.405	  0.145
375.696	 -0.405	  0.165
375.700	 -0.410	  0.185
375.704	 -0.405	  0.180
375.708	 -0.405	  0.195
375.712	 -0.395	  0.210
375.716	 -0.400	  0.215
375.720	 -0.385	  0.230
375.724	 -0.390	  0.225
375.728	 -0.380	  0.255
375.732	 -0.370	  0.265
375.736	 -0.390	  0.285
375.740	 -0.415	  0.305
375.744	 -0.405	  0.315
375.748	 -0.395	  0.335
375.752	 -0.385	  0.340
375.756	 -0.390	  0.350
375.760	 -0.405	  0.400
375.764	 -0.415	  0.415
375.768	 -0.435	  0.470
375.772	 -0.440	  0.470
375.776	 -0.445	  0.500
375.780	 -0.455	  0.540
375.784	 -0.480	  0.550
375.788	 -0.480	  0.595
375.792	 -0.505	  0.640
375.796	 -0.520	  0.685
375.800	 -0.530	  0.700
375.804	 -0.535	  0.720
375.808	 -0.540	  0.735
375.812	 -0.535	  0.735
375.816	 -0.535	  0.790
375.820	 -0.515	  0.800
375.824	 -0.520	  0.795
375.828	 -0.525	  0.775
375.832	 -0.475	  0.745
375.836	 -0.440	  0.705
375.840	 -0.390	  0.625
375.844	 -0.350	  0.595
375.848	 -0.300	  0.505
375.852	 -0.255	  0.465
375.856	 -0.225	  0.360
375.860	 -0.205	  0.310
375.864	 -0.195	  0.265
375.868	 -0.170	  0.195
375.872	 -0.170	  0.145
375.876	 -0.165	  0.095
375.880	 -0.155	  0.065
375.884	 -0.150	  0.045
375.888	 -0.160	  0.015
375.892	 -0.165	  0.010
375.896	 -0.210	 -0.005
375.900	 -0.165	 -0.025
375.904	 -0.175	 -0.025
375.908	 -0.180	 -0.035
375.912	 -0.185	 -0.035
375.916	 -0.200	 -0.055
375.920	 -0.195	 -0.050
375.924	 -0.200	 -0.055
375.928	 -0.215	 -0.060
375.932	 -0.210	 -0.035
375.936	 -0.225	 -0.040
375.940	 -0.250	 -0.045
375.944	 -0.250	 -0.040
375.948	 -0.245	 -0.030
375.952	 -0.225	 -0.030
375.956	 -0.230	 -0.050
375.960	 -0.230	 -0.060
375.964	 -0.255	 -0.065
375.968	 -0.270	 -0.050
375.972	 -0.290	 -0.050
375.976	 -0.255	 -0.055
375.980	 -0.250	 -0.045
375.984	 -0.250	 -0.030
375.988	 -0.250	 -0.060
375.992	 -0.250	 -0.070
375.996	 -0.225	 -0.080
376.000	 -0.250	 -0.080
376.004	 -0.255	 -0.080
376.008	 -0.285	 -0.075
376.012	 -0.265	 -0.075
376.016	 -0.235	 -0.080
376.020	 -0.200	 -0.110
376.024	 -0.190	 -0.120
376.028	 -0.190	 -0.100
376.032	 -0.155	 -0.095
376.036	 -0.125	 -0.080
376.040	 -0.065	 -0.070
376.044	 -0.035	 -0.055
376.048	 -0.020	 -0.035
376.052	 -0.020	 -0.020
376.056	  0.000	 -0.005
376.060	  0.040	  0.005
376.064	  0.045	  0.005
376.068	  0.065	  0.010
376.072	  0.105	 -0.020
376.076	  0.105	 -0.075
376.080	  0.115	 -0.095
376.084	  0.105	 -0.110
376.088	  0.115	 -0.145
376.092	  0.120	 -0.145
376.096	  0.155	 -0.195
376.100	  0.160	 -0.205
376.104	  0.150	 -0.200
376.108	  0.085	 -0.175
376.112	  0.040	 -0.170
376.116	 -0.015	 -0.165
376.120	 -0.075	 -0.145
376.124	 -0.125	 -0.150
376.128	 -0.175	 -0.145
376.132	 -0.165	 -0.140
376.136	 -0.185	 -0.145
376.140	 -0.220	 -0.160
376.144	 -0.205	 -0.155
376.148	 -0.220	 -0.160
376.152	 -0.225	 -0.165
376.156	 -0.200	 -0.165
376.160	 -0.235	 -0.160
376.164	 -0.270	 -0.145
376.168	 -0.275	 -0.160
376.172	 -0.190	 -0.190
376.176	 -0.060	 -0.210
376.180	  0.185	 -0.240
376.184	  0.480	 -0.200
376.188	  0.730	 -0.095
376.192	  0.970	 -0.070
376.196	  1.305	 -0.320
376.200	  1.765	 -0.860
376.204	  2.300	 -1.495
376.208	  2.660	 -2.135
376.212	  2.660	 -2.775
376.216	  2.445	 -3.270
376.220	  2.180	 -3.410
376.224	  1.820	 -3.015
376.228	  1.355	 -2.380
376.232	  0.885	 -1.770
376.236	  0.535	 -1.365
376.240	  0.215	 -1.080
376.244	 -0.105	 -0.860
376.248	 -0.390	 -0.650
376.252	 -0.560	 -0.535
376.256	 -0.615	 -0.440
376.260	 -0.595	 -0.375
376.264	 -0.545	 -0.300
376.268	 -0.490	 -0.225
376.272	 -0.450	 -0.125
376.276	 -0.445	 -0.025
376.280	 -0.425	  0.035
376.284	 -0.400	  0.050
376.288	 -0.420	  0.085
376.292	 -0.445	  0.110
376.296	 -0.425	  0.140
376.300	 -0.395	  0.155
376.304	 -0.385	  0.165
376.308	 -0.410	  0.185
376.312	 -0.395	  0.195
376.316	 -0.400	  0.205
376.320	 -0.405	  0.240
376.324	 -0.375	  0.235
376.328	 -0.360	  0.235
376.332	 -0.355	  0.250
376.336	 -0.365	  0.255
376.340	 -0.395	  0.290
376.344	 -0.370	  0.310
376.348	 -0.365	  0.315
376.352	 -0.360	  0.355
376.356	 -0.340	  0.365
376.360	 -0.360	  0.385
376.364	 -0.360	  0.390
376.368	 -0.355	  0.425
376.372	 -0.385	  0.465
376.376	 -0.380	  0.475
376.380	 -0.410	  0.500
376.384	 -0.410	  0.535
376.388	 -0.430	  0.590
376.392	 -0.450	  0.605
376.396	 -0.460	  0.630
376.400	 -0.480	  0.680
376.404	 -0.470	  0.710
376.408	 -0.510	  0.750
376.412	 -0.510	  0.790
376.416	 -0.515	  0.810
376.420	 -0.510	  0.810
376.424	 -0.495	  0.835
376.428	 -0.510	  0.840
376.432	 -0.485	  0.830
376.436	 -0.465	  0.825
376.440	 -0.435	  0.780
376.444	 -0.390	  0.740
376.448	 -0.340	  0.700
376.452	 -0.285	  0.660
376.456	 -0.260	  0.570
376.460	 -0.200	  0.495
376.464	 -0.190	  0.420
376.468	 -0.155	  0.370
376.472	 -0.130	  0.310
376.476	 -0.135	  0.275
376.480	 -0.120	  0.210
376.484	 -0.110	  0.165
376.488	 -0.120	  0.095
376.492	 -0.160	  0.065
376.496	 -0.135	  0.045
376.500	 -0.125	  0.025
376.504	 -0.120	  0.005
376.508	 -0.150	  0.015
376.512	 -0.145	  0.000
376.516	 -0.135	  0.000
376.520	 -0.170	 -0.010
376.524	 -0.170	 -0.030
376.528	 -0.160	 -0.015
376.532	 -0.170	 -0.010
376.536	 -0.150	 -0.010
376.540	 -0.185	 -0.030
376.544	 -0.185	 -0.015
376.548	 -0.180	 -0.030
376.552	 -0.195	 -0.040
376.556	 -0.190	 -0.040
376.560	 -0.205	 -0.025
376.564	 -0.225	 -0.040
376.568	 -0.210	 -0.040
376.572	 -0.205	 -0.040
376.576	 -0.225	 -0.030
376.580	 -0.240	 -0.020
376.584	 -0.240	 -0.025
376.588	 -0.225	 -0.030
376.592	 -0.220	 -0.040
376.596	 -0.220	 -0.030
376.600	 -0.220	 -0.035
376.604	 -0.220	 -0.020
376.608	 -0.195	 -0.030
376.612	 -0.200	 -0.045
376.616	 -0.195	 -0.060
376.620	 -0.160	 -0.040
376.624	 -0.165	 -0.075
376.628	 -0.175	 -0.070
376.632	 -0.175	 -0.035
376.636	 -0.170	 -0.065
376.640	 -0.140	 -0.070
376.644	 -0.115	 -0.060
376.648	 -0.045	 -0.045
376.652	 -0.020	 -0.045
376.656	  0.015	 -0.015
376.660	  0.030	  0.010
376.664	  0.065	  0.050
376.668	  0.085	  0.015
376.672	  0.085	  0.005
376.676	  0.110	  0.025
376.680	  0.110	  0.010
376.684	  0.165	 -0.025
376.688	  0.175	 -0.050
376.692	  0.170	 -0.060
376.696	  0.155	 -0.065
376.700	  0.155	 -0.085
376.704	  0.185	 -0.140
376.708	  0.220	 -0.150
376.712	  0.200	 -0.170
376.716	  0.160	 -0.140
376.720	  0.090	 -0.125
376.724	  0.030	 -0.105
376.728	 -0.020	 -0.110
376.732	 -0.085	 -0.105
376.736	 -0.135	 -0.105
376.740	 -0.140	 -0.100
376.744	 -0.170	 -0.110
376.748	 -0.180	 -0.130
376.752	 -0.180	 -0.135
376.756	 -0.180	 -0.130
376.760	 -0.180	 -0.115
376.764	 -0.180	 -0.110
376.768	 -0.205	 -0.135
376.772	 -0.255	 -0.115
376.776	 -0.280	 -0.155
376.780	 -0.230	 -0.160
376.784	 -0.100	 -0.170
376.788	  0.125	 -0.190
376.792	  0.390	 -0.185
376.796	  0.625	 -0.125
376.800	  0.860	 -0.030
376.804	  1.160	 -0.175
376.808	  1.580	 -0.600
376.812	  2.105	 -1.240
376.816	  2.570	 -1.880
376.820	  2.690	 -2.520
376.824	  2.520	 -3.095
376.828	  2.285	 -3.390
376.832	  1.935	 -3.195
376.836	  1.495	 -2.560
376.840	  1.020	 -1.975
376.844	  0.635	 -1.515
376.848	  0.295	 -1.205
376.852	 -0.020	 -0.945
376.856	 -0.345	 -0.755
376.860	 -0.550	 -0.620
376.864	 -0.620	 -0.515
376.868	 -0.640	 -0.425
376.872	 -0.595	 -0.315
376.876	 -0.570	 -0.235
376.880	 -0.525	 -0.140
376.884	 -0.485	 -0.040
376.888	 -0.470	  0.005
376.892	 -0.460	  0.030
376.896	 -0.465	  0.055
376.900	 -0.445	  0.100
376.904	 -0.450	  0.130
376.908	 -0.455	  0.155
376.912	 -0.435	  0.150
376.916	 -0.435	  0.175
376.920	 -0.420	  0.180
376.924	 -0.420	  0.205
376.928	 -0.435	  0.225
376.932	 -0.425	  0.225
376.936	 -0.410	  0.245
376.940	 -0.430	  0.255
376.944	 -0.420	  0.290
376.948	 -0.425	  0.290
376.952	 -0.420	  0.285
376.956	 -0.440	  0.290
376.960	 -0.420	  0.305
376.964	 -0.440	  0.335
376.968	 -0.445	  0.365
376.972	 -0.430	  0.370
376.976	 -0.445	  0.420
376.980	 -0.435	  0.425
376.984	 -0.450	  0.450
376.988	 -0.450	  0.485
376.992	 -0.460	  0.530
376.996	 -0.475	  0.545
377.000	 -0.490	  0.570
377.004	 -0.515	  0.620
377.008	 -0.520	  0.655
377.012	 -0.535	  0.695
377.016	 -0.555	  0.705
377.020	 -0.570	  0.740
377.024	 -0.560	  0.765
377.028	 -0.555	  0.795
377.032	 -0.545	  0.815
377.036	 -0.545	  0.840
377.040	 -0.525	  0.840
377.044	 -0.485	  0.820
377.048	 -0.475	  0.775
377.052	 -0.450	  0.740
377.056	 -0.415	  0.680
377.060	 -0.345	  0.615
377.064	 -0.310	  0.560
377.068	 -0.285	  0.515
377.072	 -0.245	  0.435
377.076	 -0.225	  0.375
377.080	 -0.205	  0.305
377.084	 -0.200	  0.235
377.088	 -0.210	  0.195
377.092	 -0.210	  0.145
377.096	 -0.200	  0.120
377.100	 -0.175	  0.110
377.104	 -0.195	  0.055
377.108	 -0.190	  0.040
377.112	 -0.210	  0.035
377.116	 -0.230	  0.035
377.120	 -0.195	  0.020
377.124	 -0.205	  0.010
377.128	 -0.205	  0.000
377.132	 -0.240	 -0.005
377.136	 -0.275	 -0.010
377.140	 -0.265	 -0.035
377.144	 -0.260	 -0.030
377.148	 -0.235	 -0.010
377.152	 -0.260	 -0.015
377.156	 -0.275	  0.000
377.160	 -0.265	 -0.015
377.164	 -0.265	 -0.015
377.168	 -0.270	 -0.025
377.172	 -0.270	 -0.025
377.176	 -0.295	 -0.020
377.180	 -0.310	 -0.025
377.184	 -0.310	 -0.025
377.188	 -0.315	 -0.020
377.192	 -0.320	 -0.015
377.196	 -0.300	 -0.025
377.200	 -0.305	 -0.035
377.204	 -0.310	 -0.025
377.208	 -0.320	 -0.040
377.212	 -0.300	 -0.040
377.216	 -0.285	 -0.060
377.220	 -0.300	 -0.060
377.224	 -0.315	 -0.055
377.228	 -0.305	 -0.085
377.232	 -0.290	 -0.070
377.236	 -0.280	 -0.070
377.240	 -0.265	 -0.060
377.244	 -0.255	 -0.065
377.248	 -0.250	 -0.050
377.252	 -0.210	 -0.050
377.256	 -0.170	 -0.065
377.260	 -0.135	 -0.040
377.264	 -0.110	 -0.050
377.268	 -0.065	 -0.030
377.272	 -0.060	 -0.005
377.276	 -0.025	  0.035
377.280	 -0.010	  0.020
377.284	  0.015	  0.030
377.288	  0.025	  0.015
377.292	  0.075	  0.000
377.296	  0.110	 -0.010
377.300	  0.140	 -0.030
377.304	  0.125	 -0.040
377.308	  0.140	 -0.040
377.312	  0.135	 -0.080
377.316	  0.145	 -0.110
377.320	  0.160	 -0.115
377.324	  0.170	 -0.145
377.328	  0.095	 -0.100
377.332	  0.020	 -0.095
377.336	 -0.040	 -0.080
377.340	 -0.090	 -0.095
377.344	 -0.160	 -0.080
377.348	 -0.180	 -0.100
377.352	 -0.185	 -0.090
377.356	 -0.210	 -0.080
377.360	 -0.230	 -0.075
377.364	 -0.255	 -0.085
377.368	 -0.255	 -0.105
377.372	 -0.235	 -0.100
377.376	 -0.230	 -0.105
377.380	 -0.245	 -0.120
377.384	 -0.255	 -0.110
377.388	 -0.290	 -0.110
377.392	 -0.280	 -0.105
377.396	 -0.160	 -0.115
377.400	  0.040	 -0.150
377.404	  0.335	 -0.130
377.408	  0.635	 -0.060
377.412	  0.915	  0.010
377.416	  1.250	 -0.065
377.420	  1.700	 -0.490
377.424	  2.210	 -1.130
377.428	  2.645	 -1.770
377.432	  2.775	 -2.410
377.436	  2.665	 -3.050
377.440	  2.430	 -3.420
377.444	  2.105	 -3.245
377.448	  1.650	 -2.610
377.452	  1.160	 -2.015
377.456	  0.745	 -1.525
377.460	  0.400	 -1.190
377.464	  0.030	 -0.920
377.468	 -0.325	 -0.705
377.472	 -0.545	 -0.540
377.476	 -0.625	 -0.440
377.480	 -0.630	 -0.345
377.484	 -0.580	 -0.275
377.488	 -0.545	 -0.180
377.492	 -0.510	 -0.115
377.496	 -0.485	 -0.015
377.500	 -0.470	  0.035
377.504	 -0.460	  0.095
377.508	 -0.425	  0.130
377.512	 -0.445	  0.170
377.516	 -0.450	  0.190
377.520	 -0.410	  0.210
377.524	 -0.410	  0.205
377.528	 -0.430	  0.235
377.532	 -0.430	  0.245
377.536	 -0.435	  0.275
377.540	 -0.445	  0.270
377.544	 -0.405	  0.285
377.548	 -0.410	  0.295
377.552	 -0.380	  0.315
377.556	 -0.395	  0.315
377.560	 -0.390	  0.345
377.564	 -0.385	  0.350
377.568	 -0.400	  0.375
377.572	 -0.370	  0.395
377.576	 -0.390	  0.405
377.580	 -0.360	  0.420
377.584	 -0.375	  0.455
377.588	 -0.360	  0.465
377.592	 -0.365	  0.495
377.596	 -0.380	  0.525
377.600	 -0.385	  0.540
377.604	 -0.390	  0.580
377.608	 -0.395	  0.630
377.612	 -0.385	  0.675
377.616	 -0.410	  0.705
377.620	 -0.415	  0.750
377.624	 -0.415	  0.770
377.628	 -0.440	  0.795
377.632	 -0.460	  0.805
377.636	 -0.460	  0.815
377.640	 -0.465	  0.815
377.644	 -0.480	  0.840
377.648	 -0.455	  0.845
377.652	 -0.420	  0.840
377.656	 -0.395	  0.850
377.660	 -0.335	  0.830
377.664	 -0.300	  0.770
377.668	 -0.240	  0.730
377.672	 -0.190	  0.670
377.676	 -0.140	  0.610
377.680	 -0.085	  0.535
377.684	 -0.005	  0.450
377.688	 -0.005	  0.385
377.692	  0.020	  0.340
377.696	 -0.035	  0.295
377.700	 -0.080	  0.245
377.704	 -0.115	  0.200
377.708	 -0.085	  0.160
377.712	 -0.085	  0.120
377.716	 -0.055	  0.080
377.720	 -0.050	  0.025
377.724	 -0.025	  0.020
377.728	 -0.045	  0.020
377.732	 -0.050	  0.025
377.736	 -0.075	  0.020
377.740	 -0.080	  0.005
377.744	 -0.080	  0.005
377.748	 -0.065	  0.005
377.752	 -0.045	 -0.005
377.756	 -0.060	 -0.015
377.760	 -0.060	  0.025
377.764	 -0.085	  0.000
377.768	 -0.065	 -0.010
377.772	 -0.095	  0.000
377.776	 -0.090	  0.025
377.780	 -0.100	  0.010
377.784	 -0.105	  0.010
377.788	 -0.100	 -0.015
377.792	 -0.105	 -0.015
377.796	 -0.110	 -0.010
377.800	 -0.115	  0.000
377.804	 -0.100	 -0.030
377.808	 -0.080	 -0.010
377.812	 -0.055	 -0.005
377.816	 -0.035	 -0.020
377.820	 -0.060	 -0.035
377.824	 -0.110	 -0.025
377.828	 -0.120	 -0.015
377.832	 -0.100	 -0.025
377.836	 -0.080	 -0.025
377.840	 -0.050	 -0.040
377.844	 -0.040	 -0.060
377.848	 -0.050	 -0.065
377.852	 -0.070	 -0.035
377.856	 -0.070	 -0.060
377.860	 -0.050	 -0.050
377.864	 -0.020	 -0.055
377.868	  0.040	 -0.055
377.872	  0.080	 -0.050
377.876	  0.110	 -0.030
377.880	  0.140	 -0.020
377.884	  0.150	  0.000
377.888	  0.175	  0.025
377.892	  0.195	  0.045
377.896	  0.195	  0.020
377.900	  0.215	  0.035
377.904	  0.245	 -0.005
377.908	  0.300	 -0.025
377.912	  0.330	 -0.070
377.916	  0.285	 -0.075
377.920	  0.300	 -0.080
377.924	  0.290	 -0.095
377.928	  0.285	 -0.130
377.932	  0.305	 -0.140
377.936	  0.300	 -0.140
377.940	  0.250	 -0.135
377.944	  0.180	 -0.135
377.948	  0.120	 -0.135
377.952	  0.075	 -0.130
377.956	 -0.005	 -0.125
377.960	 -0.055	 -0.100
377.964	 -0.070	 -0.100
377.968	 -0.075	 -0.105
377.972	 -0.090	 -0.120
377.976	 -0.050	 -0.125
377.980	 -0.065	 -0.145
377.984	 -0.055	 -0.130
377.988	 -0.085	 -0.140
377.992	 -0.140	 -0.155
377.996	 -0.180	 -0.130
378.000	 -0.180	 -0.130
378.004	 -0.120	 -0.145
378.008	  0.025	 -0.190
378.012	  0.250	 -0.180
378.016	  0.535	 -0.175
378.020	  0.785	 -0.085
378.024	  1.005	 -0.030
378.028	  1.280	 -0.195
378.032	  1.715	 -0.635
378.036	  2.255	 -1.255
378.040	  2.655	 -1.895
378.044	  2.745	 -2.505
378.048	  2.585	 -3.025
378.052	  2.330	 -3.325
378.056	  1.975	 -3.100
378.060	  1.500	 -2.525
378.064	  1.015	 -1.955
378.068	  0.640	 -1.535
378.072	  0.320	 -1.205
378.076	 -0.015	 -0.980
378.080	 -0.310	 -0.775
378.084	 -0.450	 -0.635
378.088	 -0.530	 -0.510
378.092	 -0.530	 -0.425
378.096	 -0.490	 -0.345
378.100	 -0.445	 -0.260
378.104	 -0.385	 -0.170
378.108	 -0.360	 -0.070
378.112	 -0.320	 -0.030
378.116	 -0.310	  0.025
378.120	 -0.295	  0.055
378.124	 -0.285	  0.085
378.128	 -0.270	  0.115
378.132	 -0.295	  0.145
378.136	 -0.300	  0.145
378.140	 -0.320	  0.165
378.144	 -0.325	  0.185
378.148	 -0.310	  0.175
378.152	 -0.305	  0.195
378.156	 -0.300	  0.200
378.160	 -0.305	  0.215
378.164	 -0.315	  0.240
378.168	 -0.300	  0.245
378.172	 -0.280	  0.290
378.176	 -0.280	  0.280
378.180	 -0.280	  0.275
378.184	 -0.285	  0.300
378.188	 -0.270	  0.325
378.192	 -0.300	  0.360
378.196	 -0.290	  0.385
378.200	 -0.280	  0.420
378.204	 -0.300	  0.460
378.208	 -0.320	  0.485
378.212	 -0.375	  0.505
378.216	 -0.395	  0.490
378.220	 -0.400	  0.530
378.224	 -0.420	  0.580
378.228	 -0.420	  0.670
378.232	 -0.410	  0.725
378.236	 -0.425	  0.740
378.240	 -0.425	  0.735
378.244	 -0.455	  0.735
378.248	 -0.460	  0.705
378.252	 -0.485	  0.745
378.256	 -0.495	  0.840
378.260	 -0.465	  0.880
378.264	 -0.420	  0.875
378.268	 -0.385	  0.790
378.272	 -0.365	  0.765
378.276	 -0.345	  0.715
378.280	 -0.295	  0.660
378.284	 -0.260	  0.635
378.288	 -0.225	  0.605
378.292	 -0.160	  0.575
378.296	 -0.130	  0.495
378.300	 -0.095	  0.385
378.304	 -0.090	  0.270
378.308	 -0.105	  0.200
378.312	 -0.105	  0.180
378.316	 -0.095	  0.180
378.320	 -0.055	  0.205
378.324	 -0.025	  0.145
378.328	 -0.005	  0.090
378.332	  0.005	  0.005
378.336	  0.000	 -0.030
378.340	 -0.035	 -0.045
378.344	 -0.025	 -0.035
378.348	 -0.035	 -0.065
378.352	 -0.040	 -0.010
378.356	 -0.045	  0.000
378.360	 -0.050	 -0.015
378.364	 -0.045	 -0.020
378.368	 -0.060	 -0.025
378.372	 -0.040	 -0.020
378.376	 -0.060	 -0.020
378.380	 -0.070	 -0.010
378.384	 -0.070	 -0.020
378.388	 -0.075	 -0.055
378.392	 -0.095	 -0.040
378.396	 -0.080	 -0.045
378.400	 -0.100	 -0.040
378.404	 -0.105	 -0.040
378.408	 -0.115	 -0.020
378.412	 -0.110	 -0.030
378.416	 -0.110	 -0.015
378.420	 -0.100	 -0.015
378.424	 -0.075	 -0.050
378.428	 -0.105	 -0.030
378.432	 -0.095	 -0.040
378.436	 -0.115	 -0.025
378.440	 -0.115	 -0.035
378.444	 -0.085	 -0.025
378.448	 -0.100	 -0.035
378.452	 -0.095	 -0.040
378.456	 -0.085	 -0.070
378.460	 -0.080	 -0.080
378.464	 -0.070	 -0.075
378.468	 -0.065	 -0.080
378.472	 -0.060	 -0.070
378.476	 -0.030	 -0.050
378.480	  0.000	 -0.060
378.484	  0.055	 -0.050
378.488	  0.075	 -0.065
378.492	  0.105	 -0.025
378.496	  0.135	 -0.020
378.500	  0.155	 -0.020
378.504	  0.170	  0.005
378.508	  0.180	  0.025
378.512	  0.185	  0.015
378.516	  0.200	  0.015
378.520	  0.235	 -0.035
378.524	  0.235	 -0.070
378.528	  0.230	 -0.075
378.532	  0.240	 -0.105
378.536	  0.225	 -0.125
378.540	  0.230	 -0.140
378.544	  0.245	 -0.155
378.548	  0.245	 -0.175
378.552	  0.190	 -0.130
378.556	  0.130	 -0.135
378.560	  0.075	 -0.110
378.564	  0.020	 -0.135
378.568	 -0.050	 -0.110
378.572	 -0.130	 -0.085
378.576	 -0.145	 -0.075
378.580	 -0.145	 -0.025
378.584	 -0.125	  0.000
378.588	 -0.115	 -0.005
378.592	 -0.090	 -0.105
378.596	 -0.065	 -0.150
378.600	 -0.075	 -0.160
378.604	 -0.100	 -0.155
378.608	 -0.145	 -0.160
378.612	 -0.160	 -0.170
378.616	 -0.130	 -0.155
378.620	  0.010	 -0.190
378.624	  0.220	 -0.180
378.628	  0.475	 -0.170
378.632	  0.700	 -0.080
378.636	  0.940	 -0.040
378.640	  1.270	 -0.255
378.644	  1.745	 -0.735
378.648	  2.290	 -1.375
378.652	  2.710	 -2.015
378.656	  2.760	 -2.655
378.660	  2.570	 -3.210
378.664	  2.330	 -3.455
378.668	  1.960	 -3.125
378.672	  1.490	 -2.490
378.676	  1.015	 -1.855
378.680	  0.650	 -1.400
378.684	  0.320	 -1.085
378.688	  0.015	 -0.880
378.692	 -0.265	 -0.700
378.696	 -0.430	 -0.600
378.700	 -0.525	 -0.480
378.704	 -0.495	 -0.405
378.708	 -0.455	 -0.330
378.712	 -0.410	 -0.245
378.716	 -0.400	 -0.160
378.720	 -0.365	 -0.075
378.724	 -0.350	 -0.005
378.728	 -0.335	  0.075
378.732	 -0.335	  0.085
378.736	 -0.315	  0.125
378.740	 -0.320	  0.140
378.744	 -0.315	  0.155
378.748	 -0.305	  0.155
378.752	 -0.305	  0.175
378.756	 -0.315	  0.190
378.760	 -0.320	  0.200
378.764	 -0.330	  0.215
378.768	 -0.320	  0.245
378.772	 -0.325	  0.250
378.776	 -0.310	  0.255
378.780	 -0.305	  0.260
378.784	 -0.310	  0.280
378.788	 -0.305	  0.310
378.792	 -0.290	  0.315
378.796	 -0.300	  0.325
378.800	 -0.305	  0.330
378.804	 -0.295	  0.360
378.808	 -0.305	  0.375
378.812	 -0.320	  0.405
378.816	 -0.315	  0.440
378.820	 -0.325	  0.460
378.824	 -0.335	  0.485
378.828	 -0.355	  0.525
378.832	 -0.375	  0.550
378.836	 -0.390	  0.565
378.840	 -0.400	  0.595
378.844	 -0.410	  0.650
378.848	 -0.425	  0.690
378.852	 -0.470	  0.710
378.856	 -0.460	  0.745
378.860	 -0.475	  0.770
378.864	 -0.480	  0.800
378.868	 -0.480	  0.805
378.872	 -0.460	  0.815
378.876	 -0.430	  0.815
378.880	 -0.420	  0.820
378.884	 -0.400	  0.775
378.888	 -0.360	  0.750
378.892	 -0.335	  0.675
378.896	 -0.295	  0.610
378.900	 -0.245	  0.515
378.904	 -0.210	  0.435
378.908	 -0.170	  0.375
378.912	 -0.155	  0.325
378.916	 -0.145	  0.260
378.920	 -0.130	  0.185
378.924	 -0.120	  0.120
378.928	 -0.100	  0.075
378.932	 -0.115	  0.055
378.936	 -0.115	  0.005
378.940	 -0.130	  0.000
378.944	 -0.115	 -0.050
378.948	 -0.110	 -0.060
378.952	 -0.085	 -0.070
378.956	 -0.100	 -0.075
378.960	 -0.095	 -0.075
378.964	 -0.095	 -0.080
378.968	 -0.150	 -0.080
378.972	 -0.195	 -0.075
378.976	 -0.215	 -0.080
378.980	 -0.210	 -0.070
378.984	 -0.195	 -0.090
378.988	 -0.190	 -0.095
378.992	 -0.190	 -0.110
378.996	 -0.195	 -0.105
379.000	 -0.190	 -0.095
379.004	 -0.185	 -0.090
379.008	 -0.190	 -0.080
379.012	 -0.200	 -0.095
379.016	 -0.185	 -0.085
379.020	 -0.140	 -0.080
379.024	 -0.090	 -0.060
379.028	 -0.055	 -0.050
379.032	  0.005	 -0.030
379.036	  0.040	 -0.005
379.040	  0.115	  0.025
379.044	  0.115	  0.060
379.048	  0.105	  0.090
379.052	  0.065	  0.135
379.056	  0.110	  0.180
379.060	  0.195	  0.150
379.064	  0.310	  0.170
379.068	  0.500	  0.190
379.072	  0.730	  0.255
379.076	  1.005	  0.355
379.080	  1.275	  0.490
379.084	  1.535	  0.685
379.088	  1.805	  0.895
379.092	  2.090	  1.095
379.096	  2.340	  1.330
379.100	  2.445	  1.565
379.104	  2.495	  1.835
379.108	  2.510	  2.080
379.112	  2.525	  2.155
379.116	  2.575	  2.080
379.120	  2.565	  1.885
379.124	  2.520	  1.700
379.128	  2.475	  1.515
379.132	  2.395	  1.265
379.136	  2.285	  0.925
379.140	  2.215	  0.565
379.144	  2.255	  0.220
379.148	  2.355	 -0.105
379.152	  2.345	 -0.365
379.156	  2.050	 -0.480
379.160	  1.500	 -0.505
379.164	  0.870	 -0.440
379.168	  0.270	 -0.420
379.172	 -0.175	 -0.400
379.176	 -0.490	 -0.375
379.180	 -0.645	 -0.390
379.184	 -0.770	 -0.420
379.188	 -0.835	 -0.490
379.192	 -0.895	 -0.560
379.196	 -0.950	 -0.600
379.200	 -0.970	 -0.595
379.204	 -0.990	 -0.615
379.208	 -1.010	 -0.600
379.212	 -1.045	 -0.630
379.216	 -1.035	 -0.640
379.220	 -1.065	 -0.640
379.224	 -1.100	 -0.660
379.228	 -1.110	 -0.675
379.232	 -1.140	 -0.680
379.236	 -1.165	 -0.695
379.240	 -1.160	 -0.700
379.244	 -1.195	 -0.750
379.248	 -1.215	 -0.775
379.252	 -1.225	 -0.775
379.256	 -1.270	 -0.785
379.260	 -1.275	 -0.790
379.264	 -1.300	 -0.805
379.268	 -1.315	 -0.830
379.272	 -1.315	 -0.850
379.276	 -1.340	 -0.880
379.280	 -1.350	 -0.890
379.284	 -1.380	 -0.870
379.288	 -1.405	 -0.905
379.292	 -1.430	 -0.905
379.296	 -1.435	 -0.920
379.300	 -1.475	 -0.920
379.304	 -1.490	 -0.945
379.308	 -1.480	 -0.945
379.312	 -1.525	 -0.970
379.316	 -1.520	 -0.925
379.320	 -1.495	 -0.935
379.324	 -1.470	 -0.900
379.328	 -1.455	 -0.895
379.332	 -1.380	 -0.875
379.336	 -1.330	 -0.835
379.340	 -1.300	 -0.795
379.344	 -1.240	 -0.750
379.348	 -1.175	 -0.695
379.352	 -1.115	 -0.615
379.356	 -1.030	 -0.560
379.360	 -0.985	 -0.450
379.364	 -0.915	 -0.400
379.368	 -0.870	 -0.320
379.372	 -0.820	 -0.265
379.376	 -0.775	 -0.215
379.380	 -0.730	 -0.180
379.384	 -0.700	 -0.140
379.388	 -0.675	 -0.120
379.392	 -0.625	 -0.130
379.396	 -0.585	 -0.125
379.400	 -0.565	 -0.120
379.404	 -0.530	 -0.110
379.408	 -0.505	 -0.110
379.412	 -0.490	 -0.125
379.416	 -0.470	 -0.125
379.420	 -0.460	 -0.115
379.424	 -0.460	 -0.125
379.428	 -0.435	 -0.115
379.432	 -0.430	 -0.105
379.436	 -0.400	 -0.120
379.440	 -0.415	 -0.110
379.444	 -0.415	 -0.110
379.448	 -0.440	 -0.120
379.452	 -0.435	 -0.115
379.456	 -0.415	 -0.125
379.460	 -0.405	 -0.140
379.464	 -0.390	 -0.125
379.468	 -0.395	 -0.145
379.472	 -0.390	 -0.135
379.476	 -0.400	 -0.155
379.480	 -0.415	 -0.130
379.484	 -0.380	 -0.115
379.488	 -0.410	 -0.145
379.492	 -0.395	 -0.120
379.496	 -0.395	 -0.140
379.500	 -0.400	 -0.165
379.504	 -0.400	 -0.160
379.508	 -0.395	 -0.160
379.512	 -0.375	 -0.150
379.516	 -0.405	 -0.165
379.520	 -0.395	 -0.175
379.524	 -0.380	 -0.185
379.528	 -0.360	 -0.175
379.532	 -0.390	 -0.185
379.536	 -0.415	 -0.165
379.540	 -0.415	 -0.175
379.544	 -0.410	 -0.195
379.548	 -0.395	 -0.190
379.552	 -0.390	 -0.180
379.556	 -0.395	 -0.185
379.560	 -0.395	 -0.165
379.564	 -0.385	 -0.185
379.568	 -0.415	 -0.185
379.572	 -0.415	 -0.205
379.576	 -0.395	 -0.205
379.580	 -0.415	 -0.200
379.584	 -0.435	 -0.210
379.588	 -0.435	 -0.205
379.592	 -0.410	 -0.215
379.596	 -0.410	 -0.210
379.600	 -0.430	 -0.210
379.604	 -0.420	 -0.215
379.608	 -0.450	 -0.190
379.612	 -0.430	 -0.205
379.616	 -0.415	 -0.210
379.620	 -0.445	 -0.200
379.624	 -0.445	 -0.210
379.628	 -0.460	 -0.195
379.632	 -0.455	 -0.235
379.636	 -0.445	 -0.230
379.640	 -0.455	 -0.215
379.644	 -0.460	 -0.240
379.648	 -0.485	 -0.225
379.652	 -0.465	 -0.235
379.656	 -0.490	 -0.230
379.660	 -0.465	 -0.240
379.664	 -0.460	 -0.245
379.668	 -0.455	 -0.250
379.672	 -0.460	 -0.230
379.676	 -0.470	 -0.235
379.680	 -0.480	 -0.225
379.684	 -0.465	 -0.235
379.688	 -0.460	 -0.260
379.692	 -0.465	 -0.245
379.696	 -0.460	 -0.235
379.700	 -0.410	 -0.230
379.704	 -0.360	 -0.210
379.708	 -0.335	 -0.230
379.712	 -0.330	 -0.215
379.716	 -0.315	 -0.180
379.720	 -0.270	 -0.175
379.724	 -0.235	 -0.150
379.728	 -0.220	 -0.150
379.732	 -0.210	 -0.130
379.736	 -0.210	 -0.150
379.740	 -0.185	 -0.160
379.744	 -0.160	 -0.185
379.748	 -0.150	 -0.230
379.752	 -0.155	 -0.245
379.756	 -0.185	 -0.250
379.760	 -0.160	 -0.280
379.764	 -0.150	 -0.320
379.768	 -0.145	 -0.305
379.772	 -0.185	 -0.310
379.776	 -0.235	 -0.290
379.780	 -0.325	 -0.290
379.784	 -0.395	 -0.270
379.788	 -0.430	 -0.265
379.792	 -0.480	 -0.280
379.796	 -0.530	 -0.245
379.800	 -0.570	 -0.260
379.804	 -0.585	 -0.280
379.808	 -0.595	 -0.270
379.812	 -0.605	 -0.310
379.816	 -0.590	 -0.310
379.820	 -0.585	 -0.290
379.824	 -0.610	 -0.295
379.828	 -0.655	 -0.285
379.832	 -0.665	 -0.285
379.836	 -0.620	 -0.305
379.840	 -0.470	 -0.325
379.844	 -0.285	 -0.350
379.848	 -0.010	 -0.360
379.852	  0.225	 -0.275
379.856	  0.470	 -0.205
379.860	  0.785	 -0.315
379.864	  1.240	 -0.715
379.868	  1.775	 -1.355
379.872	  2.220	 -1.995
379.876	  2.325	 -2.635
379.880	  2.170	 -3.185
379.884	  1.920	 -3.530
379.888	  1.565	 -3.465
379.892	  1.075	 -2.925
379.896	  0.595	 -2.330
379.900	  0.170	 -1.865
379.904	 -0.190	 -1.500
379.908	 -0.535	 -1.230
379.912	 -0.830	 -1.025
379.916	 -1.000	 -0.855
379.920	 -1.065	 -0.765
379.924	 -1.085	 -0.655
379.928	 -1.055	 -0.595
379.932	 -0.990	 -0.475
379.936	 -0.945	 -0.395
379.940	 -0.890	 -0.295
379.944	 -0.885	 -0.235
379.948	 -0.920	 -0.190
379.952	 -0.940	 -0.130
379.956	 -0.955	 -0.100
379.960	 -0.960	 -0.080
379.964	 -0.955	 -0.080
379.968	 -0.945	 -0.070
379.972	 -0.920	 -0.060
379.976	 -0.925	 -0.060
379.980	 -0.890	 -0.065
379.984	 -0.915	 -0.050
379.988	 -0.920	 -0.045
379.992	 -0.945	  0.000
379.996	 -0.945	  0.010
380.000	 -0.940	 -0.015
380.004	 -0.930	 -0.015
380.008	 -0.890	  0.005
380.012	 -0.900	  0.025
380.016	 -0.895	  0.035
380.020	 -0.915	  0.070
380.024	 -0.895	  0.075
380.028	 -0.905	  0.105
380.032	 -0.895	  0.110
380.036	 -0.920	  0.110
380.040	 -0.965	  0.105
380.044	 -0.965	  0.130
380.048	 -0.950	  0.185
380.052	 -0.980	  0.190
380.056	 -0.980	  0.230
380.060	 -0.950	  0.270
380.064	 -0.970	  0.280
380.068	 -0.995	  0.350
380.072	 -1.025	  0.365
380.076	 -1.040	  0.405
380.080	 -1.065	  0.415
380.084	 -1.060	  0.455
380.088	 -1.085	  0.465
380.092	 -1.080	  0.490
380.096	 -1.065	  0.550
380.100	 -1.045	  0.575
380.104	 -1.040	  0.590
380.108	 -1.045	  0.635
380.112	 -1.005	  0.610
380.116	 -0.975	  0.535
380.120	 -0.950	  0.515
380.124	 -0.910	  0.465
380.128	 -0.880	  0.440
380.132	 -0.855	  0.365
380.136	 -0.810	  0.335
380.140	 -0.815	  0.245
380.144	 -0.805	  0.175
380.148	 -0.780	  0.090
380.152	 -0.765	  0.035
380.156	 -0.750	 -0.020
380.160	 -0.745	 -0.065
380.164	 -0.735	 -0.110
380.168	 -0.765	 -0.130
380.172	 -0.790	 -0.185
380.176	 -0.825	 -0.200
380.180	 -0.855	 -0.205
380.184	 -0.835	 -0.205
380.188	 -0.825	 -0.245
380.192	 -0.855	 -0.265
380.196	 -0.890	 -0.275
380.200	 -0.900	 -0.290
380.204	 -0.930	 -0.230
380.208	 -0.885	 -0.220
380.212	 -0.870	 -0.230
380.216	 -0.865	 -0.290
380.220	 -0.875	 -0.310
380.224	 -0.890	 -0.355
380.228	 -0.940	 -0.360
380.232	 -0.945	 -0.320
380.236	 -0.925	 -0.305
380.240	 -0.925	 -0.285
380.244	 -0.945	 -0.300
380.248	 -0.955	 -0.335
380.252	 -0.955	 -0.330
380.256	 -0.940	 -0.340
380.260	 -0.955	 -0.310
380.264	 -0.950	 -0.315
380.268	 -0.935	 -0.325
380.272	 -0.935	 -0.335
380.276	 -0.905	 -0.300
380.280	 -0.940	 -0.310
380.284	 -0.930	 -0.295
380.288	 -0.960	 -0.320
380.292	 -0.950	 -0.310
380.296	 -0.945	 -0.315
380.300	 -0.935	 -0.325
380.304	 -0.930	 -0.370
380.308	 -0.915	 -0.350
380.312	 -0.900	 -0.350
380.316	 -0.840	 -0.320
380.320	 -0.800	 -0.295
380.324	 -0.755	 -0.265
380.328	 -0.745	 -0.270
380.332	 -0.705	 -0.265
380.336	 -0.680	 -0.230
380.340	 -0.665	 -0.230
380.344	 -0.625	 -0.230
380.348	 -0.625	 -0.245
380.352	 -0.585	 -0.285
380.356	 -0.570	 -0.305
380.360	 -0.595	 -0.320
380.364	 -0.570	 -0.355
380.368	 -0.560	 -0.415
380.372	 -0.550	 -0.450
380.376	 -0.510	 -0.450
380.380	 -0.575	 -0.460
380.384	 -0.665	 -0.435
380.388	 -0.735	 -0.400
380.392	 -0.775	 -0.395
380.396	 -0.865	 -0.395
380.400	 -0.915	 -0.400
380.404	 -0.940	 -0.365
380.408	 -0.920	 -0.390
380.412	 -0.945	 -0.390
380.416	 -0.980	 -0.420
380.420	 -1.005	 -0.420
380.424	 -1.040	 -0.385
380.428	 -1.020	 -0.370
380.432	 -1.015	 -0.385
380.436	 -1.045	 -0.390
380.440	 -1.040	 -0.410
380.444	 -1.000	 -0.430
380.448	 -0.890	 -0.465
380.452	 -0.715	 -0.475
380.456	 -0.460	 -0.500
380.460	 -0.180	 -0.470
380.464	  0.065	 -0.375
380.468	  0.320	 -0.365
380.472	  0.720	 -0.630
380.476	  1.300	 -1.170
380.480	  1.800	 -1.810
380.484	  1.960	 -2.450
380.488	  1.805	 -3.090
380.492	  1.520	 -3.515
380.496	  1.160	 -3.530
380.500	  0.700	 -3.050
380.504	  0.180	 -2.415
380.508	 -0.255	 -1.920
380.512	 -0.590	 -1.575
380.516	 -0.930	 -1.305
380.520	 -1.225	 -1.115
380.524	 -1.425	 -0.955
380.528	 -1.460	 -0.830
380.532	 -1.460	 -0.780
380.536	 -1.435	 -0.715
380.540	 -1.390	 -0.630
380.544	 -1.340	 -0.490
380.548	 -1.280	 -0.400
380.552	 -1.260	 -0.315
380.556	 -1.260	 -0.270
380.560	 -1.280	 -0.235
380.564	 -1.290	 -0.220
380.568	 -1.310	 -0.205
380.572	 -1.315	 -0.180
380.576	 -1.290	 -0.180
380.580	 -1.305	 -0.170
380.584	 -1.280	 -0.145
380.588	 -1.270	 -0.110
380.592	 -1.250	 -0.080
380.596	 -1.245	 -0.065
380.600	 -1.245	 -0.065
380.604	 -1.265	 -0.070
380.608	 -1.235	 -0.080
380.612	 -1.245	 -0.060
380.616	 -1.265	 -0.055
380.620	 -1.265	 -0.035
380.624	 -1.265	  0.000
380.628	 -1.280	  0.010
380.632	 -1.255	  0.035
380.636	 -1.245	  0.090
380.640	 -1.240	  0.085
380.644	 -1.240	  0.095
380.648	 -1.260	  0.130
380.652	 -1.280	  0.185
380.656	 -1.280	  0.220
380.660	 -1.315	  0.285
380.664	 -1.355	  0.315
380.668	 -1.385	  0.335
380.672	 -1.390	  0.360
380.676	 -1.380	  0.390
380.680	 -1.400	  0.425
380.684	 -1.395	  0.475
380.688	 -1.410	  0.525
380.692	 -1.425	  0.555
380.696	 -1.440	  0.565
380.700	 -1.435	  0.575
380.704	 -1.405	  0.565
380.708	 -1.375	  0.535
380.712	 -1.340	  0.530
380.716	 -1.315	  0.465
380.720	 -1.260	  0.390
380.724	 -1.225	  0.295
380.728	 -1.185	  0.230
380.732	 -1.155	  0.140
380.736	 -1.125	  0.065
380.740	 -1.130	  0.025
380.744	 -1.120	 -0.015
380.748	 -1.110	 -0.065
380.752	 -1.110	 -0.105
380.756	 -1.100	 -0.175
380.760	 -1.100	 -0.250
380.764	 -1.120	 -0.295
380.768	 -1.120	 -0.325
380.772	 -1.120	 -0.305
380.776	 -1.115	 -0.330
380.780	 -1.105	 -0.315
380.784	 -1.110	 -0.325
380.788	 -1.110	 -0.350
380.792	 -1.125	 -0.370
380.796	 -1.115	 -0.390
380.800	 -1.105	 -0.375
380.804	 -1.160	 -0.380
380.808	 -1.180	 -0.360
380.812	 -1.175	 -0.360
380.816	 -1.155	 -0.375
380.820	 -1.185	 -0.370
380.824	 -1.195	 -0.370
380.828	 -1.190	 -0.385
380.832	 -1.175	 -0.370
380.836	 -1.175	 -0.375
380.840	 -1.180	 -0.385
380.844	 -1.205	 -0.380
380.848	 -1.195	 -0.360
380.852	 -1.170	 -0.370
380.856	 -1.180	 -0.365
380.860	 -1.165	 -0.400
380.864	 -1.145	 -0.410
380.868	 -1.150	 -0.390
380.872	 -1.135	 -0.415
380.876	 -1.140	 -0.400
380.880	 -1.150	 -0.400
380.884	 -1.170	 -0.400
380.888	 -1.180	 -0.420
380.892	 -1.175	 -0.400
380.896	 -1.180	 -0.405
380.900	 -1.160	 -0.395
380.904	 -1.145	 -0.400
380.908	 -1.135	 -0.400
380.912	 -1.110	 -0.425
380.916	 -1.090	 -0.430
380.920	 -1.060	 -0.400
380.924	 -1.025	 -0.400
380.928	 -0.945	 -0.380
380.932	 -0.950	 -0.355
380.936	 -0.930	 -0.335
380.940	 -0.900	 -0.315
380.944	 -0.890	 -0.310
380.948	 -0.890	 -0.320
380.952	 -0.870	 -0.330
380.956	 -0.835	 -0.325
380.960	 -0.825	 -0.375
380.964	 -0.820	 -0.410
380.968	 -0.820	 -0.435
380.972	 -0.820	 -0.435
380.976	 -0.790	 -0.465
380.980	 -0.795	 -0.485
380.984	 -0.815	 -0.500
380.988	 -0.855	 -0.495
380.992	 -0.920	 -0.480
380.996	 -0.975	 -0.440
381.000	 -1.015	 -0.440
381.004	 -1.065	 -0.450
381.008	 -1.140	 -0.445
381.012	 -1.185	 -0.430
381.016	 -1.185	 -0.440
381.020	 -1.200	 -0.425
381.024	 -1.230	 -0.445
381.028	 -1.225	 -0.450
381.032	 -1.210	 -0.460
381.036	 -1.200	 -0.475
381.040	 -1.200	 -0.445
381.044	 -1.235	 -0.465
381.048	 -1.260	 -0.455
381.052	 -1.245	 -0.440
381.056	 -1.185	 -0.470
381.060	 -1.005	 -0.485
381.064	 -0.735	 -0.500
381.068	 -0.465	 -0.460
381.072	 -0.215	 -0.395
381.076	  0.045	 -0.390
381.080	  0.435	 -0.655
381.084	  0.950	 -1.195
381.088	  1.465	 -1.835
381.092	  1.755	 -2.475
381.096	  1.735	 -3.115
381.100	  1.550	 -3.575
381.104	  1.250	 -3.670
381.108	  0.805	 -3.185
381.112	  0.290	 -2.550
381.116	 -0.175	 -1.915
381.120	 -0.545	 -1.530
381.124	 -0.895	 -1.305
381.128	 -1.220	 -1.105
381.132	 -1.480	 -0.970
381.136	 -1.575	 -0.845
381.140	 -1.585	 -0.770
381.144	 -1.555	 -0.680
381.148	 -1.500	 -0.600
381.152	 -1.440	 -0.510
381.156	 -1.440	 -0.430
381.160	 -1.425	 -0.345
381.164	 -1.380	 -0.300
381.168	 -1.380	 -0.235
381.172	 -1.400	 -0.210
381.176	 -1.395	 -0.200
381.180	 -1.375	 -0.175
381.184	 -1.370	 -0.140
381.188	 -1.375	 -0.120
381.192	 -1.355	 -0.105
381.196	 -1.355	 -0.105
381.200	 -1.345	 -0.095
381.204	 -1.345	 -0.100
381.208	 -1.330	 -0.070
381.212	 -1.340	 -0.040
381.216	 -1.335	 -0.025
381.220	 -1.335	 -0.010
381.224	 -1.340	  0.005
381.228	 -1.335	  0.005
381.232	 -1.310	  0.010
381.236	 -1.305	  0.040
381.240	 -1.300	  0.060
381.244	 -1.315	  0.080
381.248	 -1.335	  0.095
381.252	 -1.340	  0.105
381.256	 -1.345	  0.135
381.260	 -1.345	  0.185
381.264	 -1.345	  0.215
381.268	 -1.365	  0.260
381.272	 -1.365	  0.295
381.276	 -1.370	  0.310
381.280	 -1.375	  0.330
381.284	 -1.410	  0.375
381.288	 -1.440	  0.395
381.292	 -1.465	  0.435
381.296	 -1.455	  0.450
381.300	 -1.470	  0.490
381.304	 -1.470	  0.515
381.308	 -1.460	  0.545
381.312	 -1.440	  0.565
381.316	 -1.435	  0.545
381.320	 -1.390	  0.535
381.324	 -1.350	  0.500
381.328	 -1.305	  0.470
381.332	 -1.270	  0.405
381.336	 -1.205	  0.330
381.340	 -1.150	  0.250
381.344	 -1.095	  0.200
381.348	 -1.080	  0.115
381.352	 -1.060	  0.055
381.356	 -1.035	  0.000
381.360	 -1.020	 -0.050
381.364	 -1.000	 -0.100
381.368	 -1.000	 -0.125
381.372	 -1.000	 -0.175
381.376	 -0.980	 -0.220
381.380	 -0.980	 -0.235
381.384	 -0.985	 -0.240
381.388	 -0.965	 -0.265
381.392	 -0.970	 -0.275
381.396	 -0.985	 -0.270
381.400	 -1.025	 -0.280
381.404	 -1.010	 -0.270
381.408	 -1.005	 -0.270
381.412	 -1.015	 -0.275
381.416	 -1.005	 -0.295
381.420	 -1.005	 -0.270
381.424	 -1.005	 -0.275
381.428	 -1.025	 -0.265
381.432	 -1.035	 -0.285
381.436	 -1.030	 -0.275
381.440	 -1.015	 -0.275
381.444	 -1.050	 -0.295
381.448	 -1.040	 -0.265
381.452	 -1.060	 -0.260
381.456	 -1.050	 -0.300
381.460	 -1.070	 -0.285
381.464	 -1.060	 -0.280
381.468	 -1.045	 -0.260
381.472	 -1.055	 -0.270
381.476	 -1.045	 -0.295
381.480	 -1.045	 -0.260
381.484	 -1.045	 -0.285
381.488	 -1.035	 -0.280
381.492	 -1.035	 -0.295
381.496	 -1.035	 -0.285
381.500	 -1.030	 -0.310
381.504	 -1.020	 -0.310
381.508	 -1.015	 -0.300
381.512	 -1.010	 -0.295
381.516	 -0.985	 -0.280
381.520	 -0.940	 -0.295
381.524	 -0.895	 -0.295
381.528	 -0.890	 -0.270
381.532	 -0.840	 -0.285
381.536	 -0.825	 -0.265
381.540	 -0.800	 -0.250
381.544	 -0.760	 -0.245
381.548	 -0.740	 -0.215
381.552	 -0.730	 -0.205
381.556	 -0.700	 -0.180
381.560	 -0.665	 -0.220
381.564	 -0.620	 -0.210
381.568	 -0.605	 -0.265
381.572	 -0.610	 -0.285
381.576	 -0.610	 -0.310
381.580	 -0.595	 -0.320
381.584	 -0.590	 -0.335
381.588	 -0.550	 -0.365
381.592	 -0.540	 -0.395
381.596	 -0.570	 -0.385
381.600	 -0.640	 -0.370
381.604	 -0.670	 -0.340
381.608	 -0.735	 -0.320
381.612	 -0.795	 -0.345
381.616	 -0.845	 -0.345
381.620	 -0.880	 -0.320
381.624	 -0.905	 -0.315
381.628	 -0.950	 -0.330
381.632	 -0.925	 -0.345
381.636	 -0.940	 -0.330
381.640	 -0.930	 -0.350
381.644	 -0.930	 -0.365
381.648	 -0.930	 -0.355
381.652	 -0.945	 -0.355
381.656	 -0.985	 -0.365
381.660	 -0.975	 -0.390
381.664	 -0.880	 -0.375
381.668	 -0.705	 -0.405
381.672	 -0.425	 -0.430
381.676	 -0.130	 -0.395
381.680	  0.140	 -0.310
381.684	  0.415	 -0.325
381.688	  0.855	 -0.610
381.692	  1.405	 -1.185
381.696	  1.935	 -1.825
381.700	  2.185	 -2.465
381.704	  2.095	 -3.105
381.708	  1.855	 -3.510
381.712	  1.515	 -3.545
381.716	  1.040	 -3.110
381.720	  0.490	 -2.475
381.724	  0.040	 -1.900
381.728	 -0.345	 -1.535
381.732	 -0.705	 -1.260
381.736	 -1.010	 -1.070
381.740	 -1.230	 -0.915
381.744	 -1.305	 -0.780
381.748	 -1.280	 -0.680
381.752	 -1.235	 -0.590
381.756	 -1.180	 -0.500
381.760	 -1.135	 -0.400
381.764	 -1.125	 -0.315
381.768	 -1.100	 -0.230
381.772	 -1.075	 -0.175
381.776	 -1.075	 -0.140
381.780	 -1.070	 -0.085
381.784	 -1.070	 -0.095
381.788	 -1.055	 -0.060
381.792	 -1.060	 -0.035
381.796	 -1.075	 -0.010
381.800	 -1.070	 -0.015
381.804	 -1.055	  0.000
381.808	 -1.090	  0.025
381.812	 -1.090	  0.025
381.816	 -1.100	  0.030
381.820	 -1.080	  0.055
381.824	 -1.060	  0.060
381.828	 -1.055	  0.085
381.832	 -1.040	  0.100
381.836	 -1.035	  0.100
381.840	 -1.005	  0.145
381.844	 -0.990	  0.175
381.848	 -1.010	  0.165
381.852	 -1.020	  0.215
381.856	 -1.030	  0.215
381.860	 -1.040	  0.270
381.864	 -1.065	  0.270
381.868	 -1.065	  0.305
381.872	 -1.090	  0.350
381.876	 -1.095	  0.385
381.880	 -1.100	  0.430
381.884	 -1.125	  0.490
381.888	 -1.140	  0.515
381.892	 -1.125	  0.535
381.896	 -1.130	  0.570
381.900	 -1.120	  0.595
381.904	 -1.145	  0.610
381.908	 -1.160	  0.660
381.912	 -1.195	  0.705
381.916	 -1.180	  0.710
381.920	 -1.170	  0.715
381.924	 -1.155	  0.690
381.928	 -1.115	  0.690
381.932	 -1.080	  0.650
381.936	 -1.030	  0.600
381.940	 -0.990	  0.535
381.944	 -0.925	  0.440
381.948	 -0.860	  0.370
381.952	 -0.835	  0.290
381.956	 -0.785	  0.215
381.960	 -0.775	  0.135
381.964	 -0.745	  0.070
381.968	 -0.725	  0.020
381.972	 -0.770	 -0.030
381.976	 -0.760	 -0.090
381.980	 -0.765	 -0.090
381.984	 -0.740	 -0.130
381.988	 -0.735	 -0.165
381.992	 -0.710	 -0.185
381.996	 -0.695	 -0.185
382.000	 -0.705	 -0.205
382.004	 -0.725	 -0.185
382.008	 -0.740	 -0.185
382.012	 -0.755	 -0.200
382.016	 -0.760	 -0.225
382.020	 -0.780	 -0.225
382.024	 -0.800	 -0.225
382.028	 -0.800	 -0.200
382.032	 -0.755	 -0.195
382.036	 -0.775	 -0.210
382.040	 -0.795	 -0.225
382.044	 -0.795	 -0.225
382.048	 -0.790	 -0.210
382.052	 -0.795	 -0.220
382.056	 -0.770	 -0.225
382.060	 -0.765	 -0.210
382.064	 -0.770	 -0.210
382.068	 -0.790	 -0.215
382.072	 -0.770	 -0.210
382.076	 -0.750	 -0.225
382.080	 -0.730	 -0.220
382.084	 -0.745	 -0.215
382.088	 -0.765	 -0.220
382.092	 -0.750	 -0.210
382.096	 -0.740	 -0.225
382.100	 -0.740	 -0.215
382.104	 -0.740	 -0.195
382.108	 -0.755	 -0.210
382.112	 -0.745	 -0.200
382.116	 -0.745	 -0.220
382.120	 -0.710	 -0.220
382.124	 -0.700	 -0.220
382.128	 -0.660	 -0.190
382.132	 -0.615	 -0.190
382.136	 -0.580	 -0.210
382.140	 -0.545	 -0.195
382.144	 -0.505	 -0.185
382.148	 -0.470	 -0.165
382.152	 -0.445	 -0.145
382.156	 -0.435	 -0.120
382.160	 -0.415	 -0.110
382.164	 -0.355	 -0.090
382.168	 -0.340	 -0.125
382.172	 -0.320	 -0.150
382.176	 -0.330	 -0.180
382.180	 -0.320	 -0.180
382.184	 -0.300	 -0.210
382.188	 -0.290	 -0.225
382.192	 -0.265	 -0.235
382.196	 -0.250	 -0.250
382.200	 -0.250	 -0.255
382.204	 -0.305	 -0.265
382.208	 -0.360	 -0.225
382.212	 -0.425	 -0.225
382.216	 -0.455	 -0.240
382.220	 -0.510	 -0.225
382.224	 -0.545	 -0.200
382.228	 -0.595	 -0.210
382.232	 -0.590	 -0.205
382.236	 -0.590	 -0.215
382.240	 -0.595	 -0.210
382.244	 -0.575	 -0.240
382.248	 -0.570	 -0.225
382.252	 -0.550	 -0.220
382.256	 -0.560	 -0.230
382.260	 -0.605	 -0.225
382.264	 -0.615	 -0.205
382.268	 -0.580	 -0.210
382.272	 -0.460	 -0.240
382.276	 -0.240	 -0.265
382.280	  0.030	 -0.255
382.284	  0.350	 -0.230
382.288	  0.640	 -0.130
382.292	  1.015	 -0.195
382.296	  1.500	 -0.575
382.300	  2.065	 -1.185
382.304	  2.535	 -1.825
382.308	  2.715	 -2.465
382.312	  2.630	 -3.105
382.316	  2.400	 -3.470
382.320	  2.080	 -3.385
382.324	  1.555	 -2.785
382.328	  0.975	 -2.150
382.332	  0.550	 -1.575
382.336	  0.165	 -1.215
382.340	 -0.190	 -1.000
382.344	 -0.535	 -0.815
382.348	 -0.745	 -0.655
382.352	 -0.840	 -0.520
382.356	 -0.840	 -0.450
382.360	 -0.820	 -0.390
382.364	 -0.755	 -0.295
382.368	 -0.725	 -0.200
382.372	 -0.690	 -0.115
382.376	 -0.675	 -0.020
382.380	 -0.655	  0.035
382.384	 -0.650	  0.035
382.388	 -0.640	  0.085
382.392	 -0.625	  0.125
382.396	 -0.625	  0.140
382.400	 -0.620	  0.140
382.404	 -0.625	  0.170
382.408	 -0.615	  0.190
382.412	 -0.625	  0.200
382.416	 -0.615	  0.210
382.420	 -0.600	  0.230
382.424	 -0.585	  0.255
382.428	 -0.585	  0.270
382.432	 -0.585	  0.275
382.436	 -0.580	  0.305
382.440	 -0.600	  0.310
382.444	 -0.605	  0.340
382.448	 -0.590	  0.335
382.452	 -0.585	  0.375
382.456	 -0.590	  0.390
382.460	 -0.600	  0.410
382.464	 -0.590	  0.450
382.468	 -0.615	  0.460
382.472	 -0.620	  0.480
382.476	 -0.620	  0.520
382.480	 -0.620	  0.545
382.484	 -0.620	  0.570
382.488	 -0.650	  0.600
382.492	 -0.660	  0.635
382.496	 -0.670	  0.670
382.500	 -0.690	  0.700
382.504	 -0.700	  0.715
382.508	 -0.705	  0.780
382.512	 -0.700	  0.805
382.516	 -0.695	  0.830
382.520	 -0.705	  0.835
382.524	 -0.685	  0.870
382.528	 -0.670	  0.895
382.532	 -0.645	  0.905
382.536	 -0.585	  0.885
382.540	 -0.565	  0.825
382.544	 -0.455	  0.785
382.548	 -0.410	  0.725
382.552	 -0.375	  0.660
382.556	 -0.335	  0.600
382.560	 -0.295	  0.525
382.564	 -0.260	  0.445
382.568	 -0.235	  0.380
382.572	 -0.210	  0.290
382.576	 -0.195	  0.240
382.580	 -0.170	  0.205
382.584	 -0.155	  0.155
382.588	 -0.160	  0.115
382.592	 -0.170	  0.090
382.596	 -0.165	  0.070
382.600	 -0.180	  0.045
382.604	 -0.155	  0.025
382.608	 -0.165	  0.020
382.612	 -0.155	  0.005
382.616	 -0.160	  0.010
382.620	 -0.160	 -0.010
382.624	 -0.170	  0.000
382.628	 -0.160	  0.000
382.632	 -0.170	 -0.005
382.636	 -0.180	 -0.005
382.640	 -0.200	 -0.010
382.644	 -0.210	  0.005
382.648	 -0.215	 -0.010
382.652	 -0.215	  0.000
382.656	 -0.230	 -0.005
382.660	 -0.225	 -0.020
382.664	 -0.225	 -0.020
382.668	 -0.255	 -0.020
382.672	 -0.260	 -0.020
382.676	 -0.250	  0.000
382.680	 -0.240	  0.000
382.684	 -0.255	 -0.005
382.688	 -0.240	 -0.010
382.692	 -0.240	 -0.035
382.696	 -0.225	 -0.015
382.700	 -0.225	 -0.025
382.704	 -0.235	 -0.010
382.708	 -0.225	 -0.025
382.712	 -0.230	 -0.010
382.716	 -0.230	 -0.030
382.720	 -0.205	 -0.025
382.724	 -0.195	 -0.060
382.728	 -0.180	 -0.045
382.732	 -0.190	 -0.055
382.736	 -0.150	 -0.060
382.740	 -0.110	 -0.065
382.744	 -0.055	 -0.055
382.748	 -0.045	 -0.055
382.752	 -0.030	 -0.020
382.756	  0.000	 -0.015
382.760	  0.055	  0.010
382.764	  0.115	  0.020
382.768	  0.130	  0.045
382.772	  0.155	  0.035
382.776	  0.185	  0.055
382.780	  0.235	  0.030
382.784	  0.285	  0.010
382.788	  0.270	 -0.010
382.792	  0.265	 -0.025
382.796	  0.250	 -0.010
382.800	  0.245	 -0.035
382.804	  0.255	 -0.045
382.808	  0.285	 -0.080
382.812	  0.275	 -0.100
382.816	  0.205	 -0.095
382.820	  0.135	 -0.085
382.824	  0.085	 -0.070
382.828	  0.045	 -0.070
382.832	 -0.005	 -0.070
382.836	 -0.040	 -0.045
382.840	 -0.075	 -0.030
382.844	 -0.080	 -0.035
382.848	 -0.085	 -0.040
382.852	 -0.075	 -0.060
382.856	 -0.060	 -0.080
382.860	 -0.070	 -0.070
382.864	 -0.070	 -0.070
382.868	 -0.090	 -0.080
382.872	 -0.125	 -0.050
382.876	 -0.140	 -0.060
382.880	 -0.070	 -0.060
382.884	  0.090	 -0.080
382.888	  0.385	 -0.120
382.892	  0.755	 -0.120
382.896	  1.090	 -0.060
382.900	  1.430	  0.030
382.904	  1.870	 -0.060
382.908	  2.370	 -0.465
382.912	  2.875	 -1.105
382.916	  3.205	 -1.745
382.920	  3.235	 -2.385
382.924	  3.085	 -3.025
382.928	  2.825	 -3.325
382.932	  2.425	 -3.165
382.936	  1.895	 -2.570
382.940	  1.375	 -1.985
382.944	  0.940	 -1.535
382.948	  0.525	 -1.170
382.952	  0.155	 -0.910
382.956	 -0.150	 -0.695
382.960	 -0.340	 -0.525
382.964	 -0.395	 -0.410
382.968	 -0.390	 -0.335
382.972	 -0.360	 -0.225
382.976	 -0.315	 -0.150
382.980	 -0.295	 -0.055
382.984	 -0.265	  0.025
382.988	 -0.260	  0.080
382.992	 -0.255	  0.125
382.996	 -0.250	  0.175
383.000	 -0.240	  0.210
383.004	 -0.220	  0.220
383.008	 -0.205	  0.240
383.012	 -0.215	  0.270
383.016	 -0.235	  0.275
383.020	 -0.220	  0.310
383.024	 -0.195	  0.325
383.028	 -0.160	  0.325
383.032	 -0.145	  0.360
383.036	 -0.160	  0.375
383.040	 -0.175	  0.395
383.044	 -0.170	  0.425
383.048	 -0.160	  0.430
383.052	 -0.150	  0.470
383.056	 -0.140	  0.465
383.060	 -0.130	  0.480
383.064	 -0.110	  0.515
383.068	 -0.100	  0.510
383.072	 -0.090	  0.555
383.076	 -0.070	  0.590
383.080	 -0.080	  0.605
383.084	 -0.070	  0.625
383.088	 -0.110	  0.675
383.092	 -0.135	  0.700
383.096	 -0.125	  0.740
383.100	 -0.120	  0.785
383.104	 -0.130	  0.825
383.108	 -0.150	  0.865
383.112	 -0.140	  0.870
383.116	 -0.160	  0.915
383.120	 -0.185	  0.960
383.124	 -0.175	  0.985
383.128	 -0.145	  1.000
383.132	 -0.140	  1.010
383.136	 -0.170	  1.025
383.140	 -0.140	  1.015
383.144	 -0.110	  0.995
383.148	 -0.095	  1.010
383.152	 -0.035	  0.950
383.156	  0.025	  0.900
383.160	  0.090	  0.810
383.164	  0.135	  0.730
383.168	  0.160	  0.675
383.172	  0.170	  0.585
383.176	  0.175	  0.510
383.180	  0.200	  0.470
383.184	  0.215	  0.395
383.188	  0.220	  0.350
383.192	  0.230	  0.315
383.196	  0.210	  0.285
383.200	  0.225	  0.260
383.204	  0.225	  0.235
383.208	  0.260	  0.205
383.212	  0.275	  0.185
383.216	  0.265	  0.170
383.220	  0.240	  0.160
383.224	  0.245	  0.155
383.228	  0.245	  0.155
383.232	  0.245	  0.165
383.236	  0.240	  0.165
383.240	  0.250	  0.140
383.244	  0.235	  0.140
383.248	  0.230	  0.145
383.252	  0.215	  0.165
383.256	  0.230	  0.130
383.260	  0.260	  0.135
383.264	  0.250	  0.150
383.268	  0.235	  0.140
383.272	  0.225	  0.165
383.276	  0.245	  0.155
383.280	  0.270	  0.165
383.284	  0.260	  0.165
383.288	  0.245	  0.170
383.292	  0.270	  0.165
383.296	  0.255	  0.150
383.300	  0.275	  0.130
383.304	  0.275	  0.135
383.308	  0.275	  0.130
383.312	  0.295	  0.145
383.316	  0.325	  0.140
383.320	  0.300	  0.140
383.324	  0.310	  0.150
383.328	  0.320	  0.140
383.332	  0.335	  0.135
383.336	  0.320	  0.145
383.340	  0.340	  0.140
383.344	  0.375	  0.135
383.348	  0.425	  0.135
383.352	  0.460	  0.125
383.356	  0.485	  0.115
383.360	  0.495	  0.155
383.364	  0.535	  0.190
383.368	  0.535	  0.185
383.372	  0.555	  0.210
383.376	  0.585	  0.230
383.380	  0.590	  0.230
383.384	  0.625	  0.215
383.388	  0.675	  0.210
383.392	  0.720	  0.200
383.396	  0.740	  0.165
383.400	  0.725	  0.175
383.404	  0.695	  0.140
383.408	  0.690	  0.140
383.412	  0.740	  0.110
383.416	  0.760	  0.095
383.420	  0.710	  0.080
383.424	  0.655	  0.110
383.428	  0.605	  0.095
383.432	  0.540	  0.130
383.436	  0.505	  0.125
383.440	  0.460	  0.100
383.444	  0.420	  0.120
383.448	  0.400	  0.140
383.452	  0.370	  0.130
383.456	  0.370	  0.115
383.460	  0.350	  0.150
383.464	  0.365	  0.135
383.468	  0.380	  0.120
383.472	  0.385	  0.105
383.476	  0.355	  0.120
383.480	  0.330	  0.115
383.484	  0.345	  0.130
383.488	  0.395	  0.120
383.492	  0.555	  0.085
383.496	  0.825	  0.060
383.500	  1.155	  0.070
383.504	  1.450	  0.140
383.508	  1.725	  0.235
383.512	  2.145	  0.105
383.516	  2.680	 -0.290
383.520	  3.205	 -0.870
383.524	  3.450	 -1.505
383.528	  3.345	 -2.085
383.532	  3.100	 -2.600
383.536	  2.825	 -2.855
383.540	  2.440	 -2.630
383.544	  1.970	 -2.060
383.548	  1.545	 -1.515
383.552	  1.145	 -1.075
383.556	  0.775	 -0.750
383.560	  0.440	 -0.535
383.564	  0.175	 -0.355
383.568	  0.055	 -0.240
383.572	  0.045	 -0.150
383.576	  0.085	 -0.065
383.580	  0.135	 -0.010
383.584	  0.170	  0.065
383.588	  0.200	  0.140
383.592	  0.215	  0.190
383.596	  0.235	  0.220
383.600	  0.235	  0.280
383.604	  0.210	  0.300
383.608	  0.220	  0.335
383.612	  0.235	  0.355
383.616	  0.250	  0.385
383.620	  0.245	  0.375
383.624	  0.270	  0.390
383.628	  0.265	  0.375
383.632	  0.285	  0.405
383.636	  0.290	  0.435
383.640	  0.285	  0.445
383.644	  0.285	  0.460
383.648	  0.285	  0.445
383.652	  0.260	  0.475
383.656	  0.270	  0.470
383.660	  0.290	  0.480
383.664	  0.285	  0.505
383.668	  0.285	  0.490
383.672	  0.305	  0.530
383.676	  0.300	  0.555
383.680	  0.285	  0.570
383.684	  0.270	  0.600
383.688	  0.260	  0.635
383.692	  0.250	  0.680
383.696	  0.250	  0.670
383.700	  0.240	  0.695
383.704	  0.225	  0.735
383.708	  0.215	  0.775
383.712	  0.190	  0.790
383.716	  0.180	  0.830
383.720	  0.175	  0.845
383.724	  0.180	  0.870
383.728	  0.175	  0.900
383.732	  0.165	  0.935
383.736	  0.175	  0.960
383.740	  0.180	  0.935
383.744	  0.200	  0.955
383.748	  0.205	  0.920
383.752	  0.255	  0.905
383.756	  0.305	  0.905
383.760	  0.350	  0.855
383.764	  0.405	  0.780
383.768	  0.445	  0.725
383.772	  0.490	  0.670
383.776	  0.515	  0.600
383.780	  0.550	  0.515
383.784	  0.555	  0.500
383.788	  0.580	  0.455
383.792	  0.580	  0.395
383.796	  0.565	  0.335
383.800	  0.595	  0.320
383.804	  0.600	  0.270
383.808	  0.600	  0.255
383.812	  0.595	  0.225
383.816	  0.595	  0.220
383.820	  0.595	  0.190
383.824	  0.605	  0.185
383.828	  0.595	  0.180
383.832	  0.600	  0.185
383.836	  0.605	  0.165
383.840	  0.590	  0.155
383.844	  0.580	  0.150
383.848	  0.570	  0.155
383.852	  0.565	  0.175
383.856	  0.580	  0.155
383.860	  0.585	  0.185
383.864	  0.575	  0.160
383.868	  0.555	  0.160
383.872	  0.535	  0.130
383.876	  0.550	  0.145
383.880	  0.545	  0.150
383.884	  0.530	  0.170
383.888	  0.525	  0.170
383.892	  0.520	  0.155
383.896	  0.505	  0.155
383.900	  0.515	  0.160
383.904	  0.515	  0.160
383.908	  0.505	  0.150
383.912	  0.495	  0.155
383.916	  0.505	  0.155
383.920	  0.490	  0.120
383.924	  0.515	  0.135
383.928	  0.510	  0.120
383.932	  0.495	  0.120
383.936	  0.520	  0.115
383.940	  0.540	  0.105
383.944	  0.525	  0.110
383.948	  0.545	  0.130
383.952	  0.550	  0.115
383.956	  0.600	  0.120
383.960	  0.660	  0.120
383.964	  0.655	  0.110
383.968	  0.710	  0.130
383.972	  0.735	  0.150
383.976	  0.725	  0.175
383.980	  0.730	  0.195
383.984	  0.755	  0.200
383.988	  0.790	  0.210
383.992	  0.810	  0.190
383.996	  0.845	  0.175
384.000	  0.845	  0.115
384.004	  0.835	  0.100
384.008	  0.845	  0.075
384.012	  0.855	  0.070
384.016	  0.850	  0.040
384.020	  0.855	  0.015
384.024	  0.865	  0.015
384.028	  0.835	  0.015
384.032	  0.745	  0.030
384.036	  0.675	  0.040
384.040	  0.655	  0.030
384.044	  0.580	  0.035
384.048	  0.530	  0.045
384.052	  0.500	  0.055
384.056	  0.490	  0.070
384.060	  0.465	  0.060
384.064	  0.460	  0.055
384.068	  0.430	  0.035
384.072	  0.450	  0.030
384.076	  0.450	  0.025
384.080	  0.450	  0.030
384.084	  0.420	  0.025
384.088	  0.395	  0.010
384.092	  0.425	  0.030
384.096	  0.545	  0.015
384.100	  0.745	 -0.005
384.104	  1.030	 -0.015
384.108	  1.310	  0.030
384.112	  1.580	  0.110
384.116	  1.890	  0.065
384.120	  2.365	 -0.240
384.124	  2.930	 -0.815
384.128	  3.375	 -1.455
384.132	  3.505	 -2.095
384.136	  3.335	 -2.695
384.140	  3.090	 -3.090
384.144	  2.720	 -3.080
384.148	  2.240	 -2.565
384.152	  1.765	 -1.930
384.156	  1.340	 -1.415
384.160	  0.970	 -1.070
384.164	  0.630	 -0.810
384.168	  0.305	 -0.605
384.172	  0.105	 -0.455
384.176	  0.000	 -0.345
384.180	  0.000	 -0.260
384.184	  0.025	 -0.200
384.188	  0.065	 -0.100
384.192	  0.085	 -0.030
384.196	  0.100	  0.060
384.200	  0.125	  0.115
384.204	  0.130	  0.185
384.208	  0.145	  0.220
384.212	  0.135	  0.245
384.216	  0.125	  0.260
384.220	  0.110	  0.270
384.224	  0.115	  0.295
384.228	  0.100	  0.290
384.232	  0.125	  0.325
384.236	  0.125	  0.335
384.240	  0.110	  0.345
384.244	  0.120	  0.350
384.248	  0.105	  0.365
384.252	  0.095	  0.375
384.256	  0.085	  0.385
384.260	  0.095	  0.420
384.264	  0.095	  0.410
384.268	  0.095	  0.435
384.272	  0.105	  0.455
384.276	  0.095	  0.465
384.280	  0.090	  0.485
384.284	  0.075	  0.510
384.288	  0.055	  0.550
384.292	  0.065	  0.570
384.296	  0.045	  0.595
384.300	  0.010	  0.615
384.304	  0.000	  0.655
384.308	 -0.020	  0.665
384.312	 -0.055	  0.725
384.316	 -0.050	  0.775
384.320	 -0.080	  0.785
384.324	 -0.100	  0.820
384.328	 -0.130	  0.855
384.332	 -0.130	  0.890
384.336	 -0.125	  0.915
384.340	 -0.150	  0.945
384.344	 -0.135	  0.955
384.348	 -0.160	  0.965
384.352	 -0.135	  0.960
384.356	 -0.115	  0.955
384.360	 -0.060	  0.935
384.364	 -0.045	  0.845
384.368	  0.045	  0.805
384.372	  0.070	  0.740
384.376	  0.095	  0.680
384.380	  0.140	  0.610
384.384	  0.180	  0.505
384.388	  0.195	  0.460
384.392	  0.210	  0.390
384.396	  0.215	  0.320
384.400	  0.215	  0.255
384.404	  0.200	  0.225
384.408	  0.200	  0.175
384.412	  0.195	  0.130
384.416	  0.205	  0.090
384.420	  0.200	  0.075
384.424	  0.185	  0.050
384.428	  0.175	  0.070
384.432	  0.165	  0.045
384.436	  0.135	  0.025
384.440	  0.150	  0.025
384.444	  0.140	  0.045
384.448	  0.105	  0.050
384.452	  0.110	  0.010
384.456	  0.110	 -0.010
384.460	  0.105	  0.025
384.464	  0.090	  0.000
384.468	  0.075	  0.010
384.472	  0.055	  0.015
384.476	  0.065	  0.020
384.480	  0.055	  0.020
384.484	  0.035	  0.000
384.488	  0.015	 -0.005
384.492	  0.000	  0.000
384.496	  0.000	 -0.005
384.500	  0.000	 -0.015
384.504	  0.005	 -0.010
384.508	  0.000	 -0.015
384.512	  0.000	 -0.020
384.516	 -0.030	 -0.030
384.520	 -0.025	 -0.025
384.524	 -0.030	 -0.030
384.528	 -0.045	 -0.035
384.532	 -0.060	 -0.060
384.536	 -0.045	 -0.055
384.540	 -0.060	 -0.075
384.544	 -0.040	 -0.055
384.548	 -0.050	 -0.070
384.552	 -0.040	 -0.080
384.556	 -0.035	 -0.095
384.560	 -0.035	 -0.080
384.564	  0.005	 -0.105
384.568	  0.055	 -0.090
384.572	  0.060	 -0.090
384.576	  0.070	 -0.065
384.580	  0.105	 -0.055
384.584	  0.120	 -0.040
384.588	  0.140	 -0.010
384.592	  0.140	 -0.005
384.596	  0.155	 -0.005
384.600	  0.170	 -0.030
384.604	  0.215	 -0.055
384.608	  0.210	 -0.070
384.612	  0.215	 -0.115
384.616	  0.180	 -0.135
384.620	  0.175	 -0.140
384.624	  0.180	 -0.150
384.628	  0.200	 -0.175
384.632	  0.180	 -0.190
384.636	  0.140	 -0.210
384.640	  0.040	 -0.230
384.644	 -0.025	 -0.195
384.648	 -0.105	 -0.190
384.652	 -0.140	 -0.175
384.656	 -0.190	 -0.190
384.660	 -0.225	 -0.170
384.664	 -0.270	 -0.175
384.668	 -0.290	 -0.175
384.672	 -0.325	 -0.185
384.676	 -0.320	 -0.200
384.680	 -0.320	 -0.205
384.684	 -0.290	 -0.205
384.688	 -0.340	 -0.185
384.692	 -0.390	 -0.215
384.696	 -0.430	 -0.230
384.700	 -0.425	 -0.250
384.704	 -0.325	 -0.250
384.708	 -0.145	 -0.265
384.712	  0.130	 -0.280
384.716	  0.420	 -0.230
384.720	  0.665	 -0.160
384.724	  1.020	 -0.200
384.728	  1.495	 -0.475
384.732	  2.035	 -1.090
384.736	  2.490	 -1.730
384.740	  2.635	 -2.370
384.744	  2.560	 -3.010
384.748	  2.350	 -3.460
384.752	  2.010	 -3.485
384.756	  1.505	 -2.990
384.760	  0.960	 -2.360
384.764	  0.490	 -1.830
384.768	  0.085	 -1.470
384.772	 -0.280	 -1.175
384.776	 -0.630	 -0.965
384.780	 -0.850	 -0.790
384.784	 -0.970	 -0.670
384.788	 -0.975	 -0.585
384.792	 -0.955	 -0.495
384.796	 -0.930	 -0.425
384.800	 -0.900	 -0.335
384.804	 -0.895	 -0.230
384.808	 -0.885	 -0.150
384.812	 -0.875	 -0.105
384.816	 -0.875	 -0.060
384.820	 -0.890	 -0.055
384.824	 -0.900	 -0.020
384.828	 -0.895	  0.000
384.832	 -0.915	  0.015
384.836	 -0.920	  0.040
384.840	 -0.910	  0.035
384.844	 -0.925	  0.045
384.848	 -0.925	  0.060
384.852	 -0.930	  0.050
384.856	 -0.935	  0.085
384.860	 -0.950	  0.085
384.864	 -0.965	  0.090
384.868	 -0.970	  0.120
384.872	 -0.975	  0.115
384.876	 -0.985	  0.140
384.880	 -0.990	  0.155
384.884	 -0.970	  0.170
384.888	 -1.005	  0.180
384.892	 -1.005	  0.190
384.896	 -1.000	  0.225
384.900	 -1.025	  0.250
384.904	 -1.050	  0.290
384.908	 -1.075	  0.300
384.912	 -1.075	  0.325
384.916	 -1.095	  0.355
384.920	 -1.120	  0.395
384.924	 -1.125	  0.430
384.928	 -1.150	  0.450
384.932	 -1.180	  0.490
384.936	 -1.220	  0.530
384.940	 -1.220	  0.550
384.944	 -1.245	  0.565
384.948	 -1.250	  0.600
384.952	 -1.255	  0.605
384.956	 -1.260	  0.635
384.960	 -1.250	  0.620
384.964	 -1.230	  0.635
384.968	 -1.190	  0.590
384.972	 -1.135	  0.555
384.976	 -1.120	  0.505
384.980	 -1.100	  0.460
384.984	 -1.030	  0.375
384.988	 -1.015	  0.275
384.992	 -0.980	  0.190
384.996	 -1.005	  0.095
385.000	 -0.985	  0.035
385.004	 -0.985	 -0.030
385.008	 -0.990	 -0.085
385.012	 -0.990	 -0.125
385.016	 -1.010	 -0.185
385.020	 -1.020	 -0.230
385.024	 -1.025	 -0.255
385.028	 -1.015	 -0.280
385.032	 -1.035	 -0.315
385.036	 -1.045	 -0.300
385.040	 -1.055	 -0.310
385.044	 -1.070	 -0.325
385.048	 -1.095	 -0.330
385.052	 -1.105	 -0.330
385.056	 -1.105	 -0.350
385.060	 -1.135	 -0.350
385.064	 -1.150	 -0.375
385.068	 -1.180	 -0.360
385.072	 -1.185	 -0.345
385.076	 -1.195	 -0.370
385.080	 -1.205	 -0.385
385.084	 -1.220	 -0.375
385.088	 -1.205	 -0.360
385.092	 -1.225	 -0.380
385.096	 -1.235	 -0.375
385.100	 -1.235	 -0.375
385.104	 -1.225	 -0.385
385.108	 -1.240	 -0.390
385.112	 -1.275	 -0.390
385.116	 -1.300	 -0.400
385.120	 -1.280	 -0.385
385.124	 -1.275	 -0.410
385.128	 -1.290	 -0.405
385.132	 -1.305	 -0.410
385.136	 -1.330	 -0.430
385.140	 -1.325	 -0.410
385.144	 -1.320	 -0.415
385.148	 -1.320	 -0.430
385.152	 -1.330	 -0.435
385.156	 -1.320	 -0.430
385.160	 -1.325	 -0.445
385.164	 -1.320	 -0.445
385.168	 -1.295	 -0.425
385.172	 -1.290	 -0.435
385.176	 -1.270	 -0.450
385.180	 -1.245	 -0.445
385.184	 -1.215	 -0.425
385.188	 -1.220	 -0.405
385.192	 -1.190	 -0.405
385.196	 -1.160	 -0.375
385.200	 -1.150	 -0.370
385.204	 -1.125	 -0.350
385.208	 -1.075	 -0.370
385.212	 -1.040	 -0.380
385.216	 -1.045	 -0.405
385.220	 -1.030	 -0.440
385.224	 -1.040	 -0.450
385.228	 -1.065	 -0.485
385.232	 -1.070	 -0.465
385.236	 -1.045	 -0.505
385.240	 -1.075	 -0.505
385.244	 -1.110	 -0.545
385.248	 -1.175	 -0.530
385.252	 -1.230	 -0.535
385.256	 -1.280	 -0.505
385.260	 -1.325	 -0.520
385.264	 -1.385	 -0.525
385.268	 -1.425	 -0.535
385.272	 -1.465	 -0.510
385.276	 -1.475	 -0.515
385.280	 -1.495	 -0.520
385.284	 -1.495	 -0.525
385.288	 -1.505	 -0.540
385.292	 -1.500	 -0.565
385.296	 -1.515	 -0.550
385.300	 -1.535	 -0.545
385.304	 -1.575	 -0.540
385.308	 -1.570	 -0.560
385.312	 -1.535	 -0.565
385.316	 -1.405	 -0.585
385.320	 -1.140	 -0.610
385.324	 -0.830	 -0.595
385.328	 -0.530	 -0.540
385.332	 -0.205	 -0.460
385.336	  0.245	 -0.605
385.340	  0.810	 -1.040
385.344	  1.370	 -1.680
385.348	  1.680	 -2.320
385.352	  1.635	 -2.960
385.356	  1.425	 -3.470
385.360	  1.080	 -3.715
385.364	  0.585	 -3.490
385.368	  0.020	 -2.895
385.372	 -0.460	 -2.330
385.376	 -0.860	 -1.890
385.380	 -1.230	 -1.595
385.384	 -1.650	 -1.410
385.388	 -1.925	 -1.230
385.392	 -2.040	 -1.075
385.396	 -2.065	 -0.980
385.400	 -2.050	 -0.875
385.404	 -1.985	 -0.770
385.408	 -1.910	 -0.640
385.412	 -1.885	 -0.550
385.416	 -1.840	 -0.490
385.420	 -1.855	 -0.450
385.424	 -1.855	 -0.390
385.428	 -1.850	 -0.380
385.432	 -1.830	 -0.360
385.436	 -1.825	 -0.350
385.440	 -1.810	 -0.315
385.444	 -1.840	 -0.305
385.448	 -1.825	 -0.290
385.452	 -1.850	 -0.280
385.456	 -1.865	 -0.250
385.460	 -1.845	 -0.255
385.464	 -1.830	 -0.245
385.468	 -1.835	 -0.225
385.472	 -1.825	 -0.220
385.476	 -1.810	 -0.215
385.480	 -1.810	 -0.185
385.484	 -1.800	 -0.165
385.488	 -1.820	 -0.160
385.492	 -1.825	 -0.145
385.496	 -1.815	 -0.125
385.500	 -1.800	 -0.105
385.504	 -1.815	 -0.075
385.508	 -1.830	 -0.045
385.512	 -1.840	 -0.025
385.516	 -1.850	 -0.025
385.520	 -1.850	  0.030
385.524	 -1.880	  0.060
385.528	 -1.895	  0.075
385.532	 -1.905	  0.130
385.536	 -1.925	  0.170
385.540	 -1.940	  0.200
385.544	 -1.945	  0.240
385.548	 -1.985	  0.270
385.552	 -1.980	  0.260
385.556	 -1.970	  0.285
385.560	 -1.970	  0.315
385.564	 -1.955	  0.315
385.568	 -1.955	  0.300
385.572	 -1.940	  0.310
385.576	 -1.910	  0.285
385.580	 -1.860	  0.245
385.584	 -1.830	  0.180
385.588	 -1.800	  0.085
385.592	 -1.715	  0.060
385.596	 -1.720	 -0.020
385.600	 -1.690	 -0.105
385.604	 -1.685	 -0.185
385.608	 -1.655	 -0.230
385.612	 -1.655	 -0.295
385.616	 -1.655	 -0.350
385.620	 -1.660	 -0.385
385.624	 -1.660	 -0.425
385.628	 -1.665	 -0.455
385.632	 -1.675	 -0.495
385.636	 -1.690	 -0.505
385.640	 -1.685	 -0.510
385.644	 -1.685	 -0.535
385.648	 -1.675	 -0.560
385.652	 -1.680	 -0.545
385.656	 -1.690	 -0.555
385.660	 -1.700	 -0.560
385.664	 -1.715	 -0.575
385.668	 -1.705	 -0.555
385.672	 -1.700	 -0.570
385.676	 -1.710	 -0.585
385.680	 -1.725	 -0.575
385.684	 -1.745	 -0.590
385.688	 -1.745	 -0.590
385.692	 -1.745	 -0.580
385.696	 -1.735	 -0.575
385.700	 -1.735	 -0.575
385.704	 -1.750	 -0.575
385.708	 -1.770	 -0.590
385.712	 -1.755	 -0.560
385.716	 -1.765	 -0.570
385.720	 -1.760	 -0.570
385.724	 -1.730	 -0.585
385.728	 -1.735	 -0.575
385.732	 -1.745	 -0.565
385.736	 -1.730	 -0.580
385.740	 -1.710	 -0.575
385.744	 -1.725	 -0.590
385.748	 -1.740	 -0.600
385.752	 -1.710	 -0.600
385.756	 -1.735	 -0.595
385.760	 -1.730	 -0.590
385.764	 -1.715	 -0.600
385.768	 -1.705	 -0.640
385.772	 -1.705	 -0.650
385.776	 -1.695	 -0.635
385.780	 -1.690	 -0.640
385.784	 -1.655	 -0.620
385.788	 -1.610	 -0.615
385.792	 -1.550	 -0.625
385.796	 -1.540	 -0.605
385.800	 -1.525	 -0.590
385.804	 -1.515	 -0.570
385.808	 -1.490	 -0.570
385.812	 -1.460	 -0.550
385.816	 -1.455	 -0.535
385.820	 -1.430	 -0.550
385.824	 -1.400	 -0.560
385.828	 -1.385	 -0.590
385.832	 -1.385	 -0.625
385.836	 -1.355	 -0.615
385.840	 -1.375	 -0.655
385.844	 -1.370	 -0.680
385.848	 -1.355	 -0.700
385.852	 -1.360	 -0.705
385.856	 -1.380	 -0.745
385.860	 -1.430	 -0.725
385.864	 -1.495	 -0.695
385.868	 -1.545	 -0.685
385.872	 -1.585	 -0.700
385.876	 -1.645	 -0.710
385.880	 -1.665	 -0.700
385.884	 -1.690	 -0.670
385.888	 -1.710	 -0.700
385.892	 -1.700	 -0.715
385.896	 -1.690	 -0.695
385.900	 -1.700	 -0.710
385.904	 -1.685	 -0.740
385.908	 -1.705	 -0.725
385.912	 -1.750	 -0.725
385.916	 -1.755	 -0.725
385.920	 -1.745	 -0.755
385.924	 -1.635	 -0.750
385.928	 -1.435	 -0.780
385.932	 -1.150	 -0.795
385.936	 -0.900	 -0.730
385.940	 -0.640	 -0.635
385.944	 -0.280	 -0.670
385.948	  0.210	 -0.990
385.952	  0.780	 -1.515
385.956	  1.240	 -2.155
385.960	  1.370	 -2.775
385.964	  1.225	 -3.280
385.968	  0.955	 -3.655
385.972	  0.560	 -3.735
385.976	  0.025	 -3.345
385.980	 -0.475	 -2.745
385.984	 -0.880	 -2.240
385.988	 -1.215	 -1.995
385.992	 -1.625	 -1.750
385.996	 -1.935	 -1.540
386.000	 -2.135	 -1.355
386.004	 -2.160	 -1.260
386.008	 -2.175	 -1.120
386.012	 -2.120	 -1.015
386.016	 -2.065	 -0.920
386.020	 -1.995	 -0.825
386.024	 -1.990	 -0.755
386.028	 -1.975	 -0.645
386.032	 -1.940	 -0.590
386.036	 -1.935	 -0.535
386.040	 -1.915	 -0.520
386.044	 -1.915	 -0.510
386.048	 -1.920	 -0.500
386.052	 -1.925	 -0.450
386.056	 -1.910	 -0.415
386.060	 -1.930	 -0.425
386.064	 -1.915	 -0.410
386.068	 -1.925	 -0.390
386.072	 -1.890	 -0.380
386.076	 -1.905	 -0.360
386.080	 -1.890	 -0.360
386.084	 -1.870	 -0.370
386.088	 -1.885	 -0.335
386.092	 -1.890	 -0.320
386.096	 -1.870	 -0.305
386.100	 -1.870	 -0.295
386.104	 -1.870	 -0.250
386.108	 -1.875	 -0.260
386.112	 -1.880	 -0.235
386.116	 -1.885	 -0.240
386.120	 -1.875	 -0.185
386.124	 -1.875	 -0.150
386.128	 -1.905	 -0.125
386.132	 -1.905	 -0.110
386.136	 -1.910	 -0.070
386.140	 -1.915	 -0.040
386.144	 -1.915	 -0.005
386.148	 -1.930	  0.030
386.152	 -1.970	  0.050
386.156	 -1.960	  0.075
386.160	 -1.965	  0.095
386.164	 -1.960	  0.150
386.168	 -1.960	  0.160
386.172	 -1.965	  0.190
386.176	 -1.950	  0.200
386.180	 -1.935	  0.205
386.184	 -1.900	  0.215
386.188	 -1.875	  0.165
386.192	 -1.845	  0.135
386.196	 -1.805	  0.100
386.200	 -1.765	  0.040
386.204	 -1.725	 -0.030
386.208	 -1.655	 -0.075
386.212	 -1.660	 -0.160
386.216	 -1.665	 -0.220
386.220	 -1.635	 -0.275
386.224	 -1.605	 -0.330
386.228	 -1.610	 -0.380
386.232	 -1.600	 -0.425
386.236	 -1.620	 -0.465
386.240	 -1.635	 -0.505
386.244	 -1.620	 -0.500
386.248	 -1.610	 -0.540
386.252	 -1.600	 -0.535
386.256	 -1.610	 -0.555
386.260	 -1.620	 -0.565
386.264	 -1.600	 -0.570
386.268	 -1.630	 -0.580
386.272	 -1.635	 -0.600
386.276	 -1.630	 -0.595
386.280	 -1.610	 -0.570
386.284	 -1.610	 -0.565
386.288	 -1.630	 -0.590
386.292	 -1.645	 -0.585
386.296	 -1.615	 -0.585
386.300	 -1.630	 -0.600
386.304	 -1.625	 -0.590
386.308	 -1.645	 -0.590
386.312	 -1.645	 -0.555
386.316	 -1.625	 -0.570
386.320	 -1.630	 -0.570
386.324	 -1.625	 -0.560
386.328	 -1.655	 -0.590
386.332	 -1.635	 -0.590
386.336	 -1.650	 -0.580
386.340	 -1.650	 -0.565
386.344	 -1.650	 -0.550
386.348	 -1.625	 -0.590
386.352	 -1.630	 -0.595
386.356	 -1.625	 -0.600
386.360	 -1.615	 -0.580
386.364	 -1.605	 -0.595
386.368	 -1.600	 -0.570
386.372	 -1.600	 -0.585
386.376	 -1.620	 -0.590
386.380	 -1.610	 -0.600
386.384	 -1.590	 -0.575
386.388	 -1.555	 -0.590
386.392	 -1.505	 -0.620
386.396	 -1.485	 -0.590
386.400	 -1.485	 -0.610
386.404	 -1.440	 -0.590
386.408	 -1.400	 -0.555
386.412	 -1.375	 -0.525
386.416	 -1.360	 -0.535
386.420	 -1.330	 -0.495
386.424	 -1.310	 -0.485
386.428	 -1.310	 -0.470
386.432	 -1.260	 -0.475
386.436	 -1.215	 -0.515
386.440	 -1.210	 -0.545
386.444	 -1.205	 -0.555
386.448	 -1.215	 -0.560
386.452	 -1.200	 -0.570
386.456	 -1.190	 -0.590
386.460	 -1.170	 -0.605
386.464	 -1.165	 -0.635
386.468	 -1.230	 -0.620
386.472	 -1.280	 -0.595
386.476	 -1.330	 -0.585
386.480	 -1.350	 -0.580
386.484	 -1.410	 -0.570
386.488	 -1.455	 -0.580
386.492	 -1.480	 -0.565
386.496	 -1.480	 -0.560
386.500	 -1.495	 -0.560
386.504	 -1.495	 -0.580
386.508	 -1.510	 -0.570
386.512	 -1.520	 -0.595
386.516	 -1.500	 -0.585
386.520	 -1.515	 -0.565
386.524	 -1.525	 -0.565
386.528	 -1.570	 -0.565
386.532	 -1.550	 -0.595
386.536	 -1.455	 -0.585
386.540	 -1.255	 -0.615
386.544	 -1.000	 -0.625
386.548	 -0.730	 -0.585
386.552	 -0.475	 -0.500
386.556	 -0.195	 -0.455
386.560	  0.230	 -0.685
386.564	  0.805	 -1.190
386.568	  1.270	 -1.830
386.572	  1.450	 -2.470
386.576	  1.390	 -3.085
386.580	  1.200	 -3.510
386.584	  0.865	 -3.675
386.588	  0.410	 -3.365
386.592	 -0.110	 -2.745
386.596	 -0.545	 -2.170
386.600	 -0.885	 -1.760
386.604	 -1.215	 -1.510
386.608	 -1.540	 -1.330
386.612	 -1.760	 -1.150
386.616	 -1.870	 -1.005
386.620	 -1.860	 -0.895
386.624	 -1.820	 -0.795
386.628	 -1.745	 -0.705
386.632	 -1.695	 -0.625
386.636	 -1.650	 -0.535
386.640	 -1.650	 -0.475
386.644	 -1.640	 -0.400
386.648	 -1.610	 -0.350
386.652	 -1.600	 -0.305
386.656	 -1.600	 -0.280
386.660	 -1.595	 -0.280
386.664	 -1.595	 -0.270
386.668	 -1.595	 -0.245
386.672	 -1.590	 -0.220
386.676	 -1.590	 -0.190
386.680	 -1.585	 -0.155
386.684	 -1.560	 -0.150
386.688	 -1.560	 -0.170
386.692	 -1.545	 -0.165
386.696	 -1.535	 -0.120
386.700	 -1.525	 -0.110
386.704	 -1.525	 -0.095
386.708	 -1.510	 -0.070
386.712	 -1.500	 -0.060
386.716	 -1.475	 -0.050
386.720	 -1.480	 -0.025
386.724	 -1.490	  0.000
386.728	 -1.490	  0.010
386.732	 -1.480	  0.035
386.736	 -1.500	  0.070
386.740	 -1.490	  0.110
386.744	 -1.490	  0.115
386.748	 -1.495	  0.155
386.752	 -1.495	  0.185
386.756	 -1.520	  0.225
386.760	 -1.530	  0.260
386.764	 -1.540	  0.305
386.768	 -1.555	  0.335
386.772	 -1.560	  0.390
386.776	 -1.540	  0.415
386.780	 -1.550	  0.440
386.784	 -1.525	  0.470
386.788	 -1.525	  0.480
386.792	 -1.505	  0.490
386.796	 -1.520	  0.495
386.800	 -1.495	  0.475
386.804	 -1.440	  0.445
386.808	 -1.395	  0.380
386.812	 -1.345	  0.305
386.816	 -1.310	  0.220
386.820	 -1.295	  0.165
386.824	 -1.245	  0.090
386.828	 -1.225	  0.050
386.832	 -1.195	 -0.035
386.836	 -1.205	 -0.110
386.840	 -1.200	 -0.160
386.844	 -1.215	 -0.215
386.848	 -1.200	 -0.235
386.852	 -1.185	 -0.265
386.856	 -1.190	 -0.300
386.860	 -1.175	 -0.330
386.864	 -1.180	 -0.355
386.868	 -1.175	 -0.355
386.872	 -1.170	 -0.380
386.876	 -1.170	 -0.380
386.880	 -1.180	 -0.360
386.884	 -1.190	 -0.380
386.888	 -1.195	 -0.380
386.892	 -1.195	 -0.370
386.896	 -1.165	 -0.365
386.900	 -1.195	 -0.375
386.904	 -1.200	 -0.390
386.908	 -1.235	 -0.395
386.912	 -1.205	 -0.365
386.916	 -1.185	 -0.355
386.920	 -1.195	 -0.350
386.924	 -1.200	 -0.370
386.928	 -1.210	 -0.365
386.932	 -1.210	 -0.375
386.936	 -1.210	 -0.360
386.940	 -1.215	 -0.370
386.944	 -1.195	 -0.375
386.948	 -1.200	 -0.370
386.952	 -1.185	 -0.375
386.956	 -1.195	 -0.370
386.960	 -1.195	 -0.355
386.964	 -1.175	 -0.355
386.968	 -1.165	 -0.365
386.972	 -1.150	 -0.380
386.976	 -1.155	 -0.380
386.980	 -1.165	 -0.380
386.984	 -1.135	 -0.370
386.988	 -1.125	 -0.385
386.992	 -1.135	 -0.375
386.996	 -1.120	 -0.385
387.000	 -1.130	 -0.385
387.004	 -1.100	 -0.380
387.008	 -1.085	 -0.370
387.012	 -1.045	 -0.385
387.016	 -1.020	 -0.380
387.020	 -0.990	 -0.385
387.024	 -0.960	 -0.365
387.028	 -0.935	 -0.340
387.032	 -0.905	 -0.345
387.036	 -0.865	 -0.310
387.040	 -0.860	 -0.300
387.044	 -0.830	 -0.295
387.048	 -0.780	 -0.280
387.052	 -0.730	 -0.300
387.056	 -0.720	 -0.310
387.060	 -0.700	 -0.375
387.064	 -0.720	 -0.375
387.068	 -0.730	 -0.400
387.072	 -0.715	 -0.425
387.076	 -0.695	 -0.430
387.080	 -0.680	 -0.430
387.084	 -0.695	 -0.440
387.088	 -0.765	 -0.445
387.092	 -0.800	 -0.405
387.096	 -0.865	 -0.395
387.100	 -0.885	 -0.390
387.104	 -0.960	 -0.390
387.108	 -0.980	 -0.385
387.112	 -1.005	 -0.385
387.116	 -1.015	 -0.365
387.120	 -1.015	 -0.365
387.124	 -1.015	 -0.370
387.128	 -1.005	 -0.385
387.132	 -0.995	 -0.385
387.136	 -0.995	 -0.400
387.140	 -0.995	 -0.395
387.144	 -1.025	 -0.405
387.148	 -1.060	 -0.390
387.152	 -1.015	 -0.420
387.156	 -0.905	 -0.415
387.160	 -0.700	 -0.435
387.164	 -0.430	 -0.445
387.168	 -0.150	 -0.390
387.172	  0.105	 -0.330
387.176	  0.455	 -0.345
387.180	  0.925	 -0.675
387.184	  1.480	 -1.250
387.188	  1.935	 -1.890
387.192	  2.080	 -2.530
387.196	  2.025	 -3.170
387.200	  1.825	 -3.550
387.204	  1.450	 -3.560
387.208	  0.900	 -3.105
387.212	  0.365	 -2.470
387.216	 -0.065	 -1.945
387.220	 -0.425	 -1.560
387.224	 -0.775	 -1.260
387.228	 -1.060	 -1.055
387.232	 -1.225	 -0.885
387.236	 -1.310	 -0.765
387.240	 -1.300	 -0.685
387.244	 -1.275	 -0.580
387.248	 -1.225	 -0.495
387.252	 -1.180	 -0.405
387.256	 -1.130	 -0.300
387.260	 -1.125	 -0.210
387.264	 -1.110	 -0.195
387.268	 -1.130	 -0.155
387.272	 -1.085	 -0.090
387.276	 -1.070	 -0.075
387.280	 -1.080	 -0.055
387.284	 -1.070	 -0.035
387.288	 -1.055	 -0.015
387.292	 -1.045	  0.000
387.296	 -1.030	  0.030
387.300	 -1.025	  0.015
387.304	 -1.020	  0.065
387.308	 -1.010	  0.075
387.312	 -0.990	  0.065
387.316	 -0.995	  0.075
387.320	 -0.970	  0.115
387.324	 -0.950	  0.125
387.328	 -0.950	  0.145
387.332	 -0.955	  0.145
387.336	 -0.950	  0.195
387.340	 -0.925	  0.205
387.344	 -0.920	  0.220
387.348	 -0.925	  0.245
387.352	 -0.945	  0.255
387.356	 -0.960	  0.295
387.360	 -0.950	  0.335
387.364	 -0.950	  0.365
387.368	 -0.965	  0.395
387.372	 -0.955	  0.425
387.376	 -0.950	  0.465
387.380	 -0.960	  0.510
387.384	 -0.960	  0.555
387.388	 -0.965	  0.580
387.392	 -0.950	  0.640
387.396	 -0.960	  0.660
387.400	 -0.990	  0.680
387.404	 -0.960	  0.700
387.408	 -0.945	  0.710
387.412	 -0.925	  0.720
387.416	 -0.910	  0.740
387.420	 -0.885	  0.735
387.424	 -0.840	  0.680
387.428	 -0.810	  0.650
387.432	 -0.750	  0.605
387.436	 -0.740	  0.535
387.440	 -0.670	  0.460
387.444	 -0.640	  0.375
387.448	 -0.640	  0.315
387.452	 -0.630	  0.250
387.456	 -0.605	  0.180
387.460	 -0.620	  0.130
387.464	 -0.610	  0.070
387.468	 -0.595	  0.040
387.472	 -0.600	 -0.010
387.476	 -0.590	 -0.045
387.480	 -0.590	 -0.070
387.484	 -0.565	 -0.065
387.488	 -0.565	 -0.070
387.492	 -0.590	 -0.105
387.496	 -0.600	 -0.100
387.500	 -0.595	 -0.085
387.504	 -0.565	 -0.110
387.508	 -0.595	 -0.110
387.512	 -0.590	 -0.115
387.516	 -0.560	 -0.100
387.520	 -0.565	 -0.105
387.524	 -0.570	 -0.095
387.528	 -0.590	 -0.120
387.532	 -0.585	 -0.120
387.536	 -0.610	 -0.080
387.540	 -0.610	 -0.070
387.544	 -0.605	 -0.080
387.548	 -0.590	 -0.080
387.552	 -0.585	 -0.080
387.556	 -0.615	 -0.065
387.560	 -0.610	 -0.090
387.564	 -0.610	 -0.080
387.568	 -0.605	 -0.075
387.572	 -0.615	 -0.110
387.576	 -0.605	 -0.100
387.580	 -0.615	 -0.080
387.584	 -0.590	 -0.095
387.588	 -0.570	 -0.090
387.592	 -0.585	 -0.100
387.596	 -0.570	 -0.095
387.600	 -0.550	 -0.100
387.604	 -0.550	 -0.100
387.608	 -0.575	 -0.080
387.612	 -0.565	 -0.085
387.616	 -0.555	 -0.090
387.620	 -0.535	 -0.105
387.624	 -0.525	 -0.105
387.628	 -0.510	 -0.110
387.632	 -0.465	 -0.100
387.636	 -0.440	 -0.095
387.640	 -0.410	 -0.115
387.644	 -0.380	 -0.085
387.648	 -0.360	 -0.070
387.652	 -0.345	 -0.075
387.656	 -0.300	 -0.040
387.660	 -0.260	 -0.020
387.664	 -0.230	  0.000
387.668	 -0.205	  0.000
387.672	 -0.180	 -0.010
387.676	 -0.120	 -0.040
387.680	 -0.095	 -0.070
387.684	 -0.085	 -0.080
387.688	 -0.120	 -0.100
387.692	 -0.125	 -0.105
387.696	 -0.105	 -0.115
387.700	 -0.085	 -0.155
387.704	 -0.095	 -0.135
387.708	 -0.130	 -0.170
387.712	 -0.205	 -0.130
387.716	 -0.260	 -0.130
387.720	 -0.305	 -0.125
387.724	 -0.360	 -0.135
387.728	 -0.395	 -0.145
387.732	 -0.385	 -0.130
387.736	 -0.430	 -0.120
387.740	 -0.430	 -0.140
387.744	 -0.450	 -0.140
387.748	 -0.440	 -0.140
387.752	 -0.425	 -0.125
387.756	 -0.430	 -0.160
387.760	 -0.435	 -0.150
387.764	 -0.465	 -0.135
387.768	 -0.480	 -0.125
387.772	 -0.470	 -0.140
387.776	 -0.385	 -0.140
387.780	 -0.190	 -0.165
387.784	  0.100	 -0.215
387.788	  0.400	 -0.170
387.792	  0.690	 -0.070
387.796	  1.005	 -0.045
387.800	  1.450	 -0.215
387.804	  1.980	 -0.730
387.808	  2.480	 -1.370
387.812	  2.760	 -2.010
387.816	  2.775	 -2.650
387.820	  2.620	 -3.205
387.824	  2.290	 -3.390
387.828	  1.800	 -3.095
387.832	  1.240	 -2.460
387.836	  0.760	 -1.880
387.840	  0.365	 -1.485
387.844	  0.000	 -1.185
387.848	 -0.380	 -0.910
387.852	 -0.590	 -0.715
387.856	 -0.695	 -0.550
387.860	 -0.710	 -0.450
387.864	 -0.690	 -0.355
387.868	 -0.645	 -0.260
387.872	 -0.585	 -0.155
387.876	 -0.595	 -0.065
387.880	 -0.585	  0.020
387.884	 -0.580	  0.085
387.888	 -0.575	  0.105
387.892	 -0.550	  0.150
387.896	 -0.545	  0.165
387.900	 -0.510	  0.175
387.904	 -0.515	  0.195
387.908	 -0.515	  0.220
387.912	 -0.505	  0.235
387.916	 -0.510	  0.240
387.920	 -0.495	  0.275
387.924	 -0.465	  0.275
387.928	 -0.460	  0.285
387.932	 -0.455	  0.315
387.936	 -0.490	  0.325
387.940	 -0.465	  0.325
387.944	 -0.425	  0.335
387.948	 -0.395	  0.365
387.952	 -0.415	  0.365
387.956	 -0.425	  0.365
387.960	 -0.425	  0.410
387.964	 -0.415	  0.445
387.968	 -0.410	  0.445
387.972	 -0.400	  0.490
387.976	 -0.390	  0.515
387.980	 -0.415	  0.550
387.984	 -0.435	  0.560
387.988	 -0.430	  0.590
387.992	 -0.425	  0.645
387.996	 -0.460	  0.670
388.000	 -0.470	  0.700
388.004	 -0.460	  0.750
388.008	 -0.495	  0.780
388.012	 -0.495	  0.810
388.016	 -0.485	  0.870
388.020	 -0.475	  0.900
388.024	 -0.480	  0.905
388.028	 -0.465	  0.910
388.032	 -0.465	  0.945
388.036	 -0.455	  0.925
388.040	 -0.440	  0.915
388.044	 -0.390	  0.890
388.048	 -0.345	  0.860
388.052	 -0.310	  0.790
388.056	 -0.265	  0.700
388.060	 -0.215	  0.660
388.064	 -0.205	  0.595
388.068	 -0.190	  0.505
388.072	 -0.150	  0.430
388.076	 -0.140	  0.375
388.080	 -0.095	  0.320
388.084	 -0.080	  0.250
388.088	 -0.070	  0.210
388.092	 -0.105	  0.180
388.096	 -0.110	  0.140
388.100	 -0.095	  0.145
388.104	 -0.085	  0.105
388.108	 -0.110	  0.075
388.112	 -0.100	  0.060
388.116	 -0.105	  0.045
388.120	 -0.110	  0.045
388.124	 -0.105	  0.020
388.128	 -0.095	  0.025
388.132	 -0.085	  0.020
388.136	 -0.090	  0.015
388.140	 -0.105	  0.025
388.144	 -0.105	  0.015
388.148	 -0.100	  0.005
388.152	 -0.115	  0.005
388.156	 -0.100	  0.025
388.160	 -0.115	  0.040
388.164	 -0.110	  0.030
388.168	 -0.120	  0.035
388.172	 -0.085	  0.025
388.176	 -0.070	  0.020
388.180	 -0.075	  0.030
388.184	 -0.085	  0.030
388.188	 -0.090	  0.055
388.192	 -0.090	  0.050
388.196	 -0.090	  0.035
388.200	 -0.105	  0.025
388.204	 -0.095	  0.035
388.208	 -0.105	  0.015
388.212	 -0.085	  0.025
388.216	 -0.080	  0.010
388.220	 -0.065	  0.010
388.224	 -0.065	  0.015
388.228	 -0.055	  0.000
388.232	 -0.065	  0.020
388.236	 -0.015	  0.025
388.240	 -0.030	  0.025
388.244	 -0.015	  0.000
388.248	  0.005	  0.010
388.252	  0.010	  0.015
388.256	  0.050	  0.025
388.260	  0.075	  0.015
388.264	  0.120	  0.035
388.268	  0.140	  0.045
388.272	  0.155	  0.065
388.276	  0.175	  0.075
388.280	  0.185	  0.110
388.284	  0.235	  0.130
388.288	  0.265	  0.135
388.292	  0.285	  0.130
388.296	  0.340	  0.105
388.300	  0.400	  0.075
388.304	  0.390	  0.060
388.308	  0.380	  0.040
388.312	  0.370	  0.030
388.316	  0.380	  0.010
388.320	  0.400	 -0.005
388.324	  0.425	 -0.035
388.328	  0.415	 -0.050
388.332	  0.345	 -0.025
388.336	  0.295	 -0.015
388.340	  0.220	 -0.020
388.344	  0.180	  0.000
388.348	  0.140	  0.000
388.352	  0.120	 -0.015
388.356	  0.100	  0.015
388.360	  0.095	  0.020
388.364	  0.065	  0.010
388.368	  0.045	  0.000
388.372	  0.060	  0.005
388.376	  0.075	  0.025
388.380	  0.085	  0.010
388.384	  0.060	  0.015
388.388	  0.035	  0.030
388.392	  0.050	  0.005
388.396	  0.055	  0.000
388.400	  0.195	 -0.005
388.404	  0.410	 -0.015
388.408	  0.685	 -0.030
388.412	  0.995	  0.015
388.416	  1.275	  0.125
388.420	  1.600	  0.105
388.424	  2.080	 -0.180
388.428	  2.650	 -0.755
388.432	  3.080	 -1.395
388.436	  3.200	 -2.035
388.440	  3.095	 -2.635
388.444	  2.870	 -3.050
388.448	  2.490	 -3.100
388.452	  1.965	 -2.650
388.456	  1.460	 -2.015
388.460	  1.035	 -1.475
388.464	  0.675	 -1.110
388.468	  0.345	 -0.800
388.472	  0.025	 -0.575
388.476	 -0.145	 -0.415
388.480	 -0.195	 -0.315
388.484	 -0.195	 -0.230
388.488	 -0.145	 -0.135
388.492	 -0.110	 -0.050
388.496	 -0.065	  0.050
388.500	 -0.040	  0.130
388.504	 -0.015	  0.205
388.508	  0.005	  0.255
388.512	  0.015	  0.270
388.516	 -0.005	  0.315
388.520	  0.015	  0.330
388.524	  0.000	  0.350
388.528	  0.040	  0.360
388.532	  0.035	  0.375
388.536	  0.060	  0.375
388.540	  0.050	  0.405
388.544	  0.080	  0.415
388.548	  0.080	  0.440
388.552	  0.085	  0.455
388.556	  0.070	  0.465
388.560	  0.095	  0.465
388.564	  0.055	  0.475
388.568	  0.070	  0.490
388.572	  0.090	  0.525
388.576	  0.105	  0.535
388.580	  0.100	  0.535
388.584	  0.105	  0.555
388.588	  0.095	  0.575
388.592	  0.110	  0.615
388.596	  0.095	  0.620
388.600	  0.095	  0.645
388.604	  0.085	  0.665
388.608	  0.070	  0.715
388.612	  0.085	  0.745
388.616	  0.070	  0.750
388.620	  0.075	  0.815
388.624	  0.065	  0.845
388.628	  0.050	  0.865
388.632	  0.025	  0.910
388.636	  0.030	  0.935
388.640	  0.025	  0.945
388.644	  0.035	  0.965
388.648	  0.035	  0.995
388.652	  0.035	  1.005
388.656	  0.060	  1.025
388.660	  0.095	  1.000
388.664	  0.125	  0.970
388.668	  0.170	  0.920
388.672	  0.205	  0.855
388.676	  0.240	  0.845
388.680	  0.290	  0.760
388.684	  0.305	  0.675
388.688	  0.335	  0.620
388.692	  0.340	  0.565
388.696	  0.365	  0.490
388.700	  0.365	  0.430
388.704	  0.375	  0.385
388.708	  0.390	  0.365
388.712	  0.380	  0.300
388.716	  0.385	  0.315
388.720	  0.390	  0.275
388.724	  0.375	  0.240
388.728	  0.395	  0.210
388.732	  0.380	  0.220
388.736	  0.360	  0.200
388.740	  0.355	  0.180
388.744	  0.350	  0.185
388.748	  0.350	  0.180
388.752	  0.345	  0.170
388.756	  0.355	  0.170
388.760	  0.355	  0.170
388.764	  0.340	  0.160
388.768	  0.330	  0.175
388.772	  0.335	  0.190
388.776	  0.340	  0.160
388.780	  0.325	  0.160
388.784	  0.330	  0.180
388.788	  0.310	  0.180
388.792	  0.295	  0.170
388.796	  0.305	  0.160
388.800	  0.300	  0.165
388.804	  0.290	  0.180
388.808	  0.275	  0.170
388.812	  0.300	  0.170
388.816	  0.310	  0.170
388.820	  0.325	  0.165
388.824	  0.315	  0.160
388.828	  0.295	  0.140
388.832	  0.285	  0.190
388.836	  0.305	  0.165
388.840	  0.310	  0.165
388.844	  0.315	  0.150
388.848	  0.315	  0.150
388.852	  0.330	  0.150
388.856	  0.345	  0.150
388.860	  0.335	  0.135
388.864	  0.335	  0.135
388.868	  0.340	  0.135
388.872	  0.380	  0.125
388.876	  0.400	  0.130
388.880	  0.445	  0.115
388.884	  0.485	  0.140
388.888	  0.500	  0.160
388.892	  0.530	  0.180
388.896	  0.530	  0.195
388.900	  0.560	  0.220
388.904	  0.600	  0.265
388.908	  0.615	  0.250
388.912	  0.660	  0.220
388.916	  0.700	  0.205
388.920	  0.730	  0.160
388.924	  0.700	  0.150
388.928	  0.710	  0.125
388.932	  0.710	  0.115
388.936	  0.685	  0.080
388.940	  0.705	  0.045
388.944	  0.710	  0.035
388.948	  0.700	  0.035
388.952	  0.660	  0.050
388.956	  0.585	  0.065
388.960	  0.535	  0.055
388.964	  0.475	  0.070
388.968	  0.410	  0.055
388.972	  0.385	  0.090
388.976	  0.365	  0.080
388.980	  0.340	  0.055
388.984	  0.345	  0.060
388.988	  0.330	  0.050
388.992	  0.325	  0.030
388.996	  0.345	  0.040
389.000	  0.360	  0.035
389.004	  0.335	  0.035
389.008	  0.310	  0.020
389.012	  0.295	  0.025
389.016	  0.355	  0.010
389.020	  0.505	  0.015
389.024	  0.760	 -0.025
389.028	  1.045	  0.005
389.032	  1.305	  0.055
389.036	  1.580	  0.105
389.040	  1.960	 -0.015
389.044	  2.440	 -0.420
389.048	  2.975	 -1.060
389.052	  3.265	 -1.700
389.056	  3.240	 -2.340
389.060	  3.070	 -2.905
389.064	  2.795	 -3.185
389.068	  2.370	 -2.995
389.072	  1.835	 -2.425
389.076	  1.375	 -1.840
389.080	  1.025	 -1.390
389.084	  0.680	 -1.070
389.088	  0.355	 -0.820
389.092	  0.105	 -0.620
389.096	 -0.010	 -0.460
389.100	 -0.040	 -0.340
389.104	 -0.015	 -0.245
389.108	  0.040	 -0.175
389.112	  0.100	 -0.050
389.116	  0.115	  0.030
389.120	  0.140	  0.130
389.124	  0.150	  0.190
389.128	  0.155	  0.225
389.132	  0.165	  0.270
389.136	  0.170	  0.315
389.140	  0.175	  0.310
389.144	  0.180	  0.340
389.148	  0.170	  0.375
389.152	  0.185	  0.390
389.156	  0.195	  0.415
389.160	  0.195	  0.425
389.164	  0.210	  0.400
389.168	  0.180	  0.435
389.172	  0.185	  0.445
389.176	  0.205	  0.455
389.180	  0.200	  0.470
389.184	  0.195	  0.490
389.188	  0.210	  0.510
389.192	  0.245	  0.515
389.196	  0.235	  0.545
