240.000	  0.050	  0.135
240.004	  0.050	  0.135
240.008	  0.055	  0.135
240.012	  0.055	  0.130
240.016	  0.040	  0.130
240.020	  0.040	  0.130
240.024	  0.040	  0.130
240.028	  0.040	  0.130
240.032	  0.040	  0.130
240.036	  0.045	  0.130
240.040	  0.045	  0.130
240.044	  0.045	  0.130
240.048	  0.050	  0.130
240.052	  0.050	  0.130
240.056	  0.055	  0.130
240.060	  0.060	  0.130
240.064	  0.055	  0.130
240.068	  0.055	  0.130
240.072	  0.055	  0.130
240.076	  0.055	  0.130
240.080	  0.050	  0.130
240.084	  0.050	  0.125
240.088	  0.055	  0.125
240.092	  0.050	  0.130
240.096	  0.050	  0.140
240.100	  0.050	  0.150
240.104	  0.075	  0.180
240.108	  0.090	  0.200
240.112	  0.100	  0.215
240.116	  0.100	  0.215
240.120	  0.100	  0.220
240.124	  0.100	  0.240
240.128	  0.115	  0.265
240.132	  0.155	  0.280
240.136	  0.185	  0.285
240.140	  0.200	  0.265
240.144	  0.200	  0.230
240.148	  0.200	  0.200
240.152	  0.190	  0.190
240.156	  0.190	  0.175
240.160	  0.180	  0.160
240.164	  0.150	  0.145
240.168	  0.120	  0.145
240.172	  0.095	  0.145
240.176	  0.090	  0.145
240.180	  0.080	  0.145
240.184	  0.070	  0.150
240.188	  0.065	  0.150
240.192	  0.060	  0.145
240.196	  0.050	  0.140
240.200	  0.050	  0.140
240.204	  0.050	  0.135
240.208	  0.045	  0.130
240.212	  0.045	  0.125
240.216	  0.035	  0.120
240.220	  0.025	  0.120
240.224	  0.025	  0.120
240.228	  0.025	  0.120
240.232	  0.025	  0.120
240.236	  0.025	  0.120
240.240	  0.030	  0.115
240.244	  0.025	  0.110
240.248	  0.020	  0.110
240.252	  0.005	  0.105
240.256	 -0.030	  0.095
240.260	 -0.065	  0.095
240.264	 -0.070	  0.090
240.268	  0.000	  0.085
240.272	  0.190	  0.045
240.276	  0.480	 -0.035
240.280	  0.860	 -0.105
240.284	  1.275	 -0.120
240.288	  1.605	 -0.040
240.292	  1.740	  0.125
240.296	  1.560	  0.300
240.300	  1.050	  0.415
240.304	  0.430	  0.445
240.308	 -0.055	  0.420
240.312	 -0.285	  0.365
240.316	 -0.330	  0.345
240.320	 -0.315	  0.370
240.324	 -0.295	  0.435
240.328	 -0.290	  0.495
240.332	 -0.290	  0.525
240.336	 -0.285	  0.545
240.340	 -0.285	  0.575
240.344	 -0.285	  0.615
240.348	 -0.285	  0.645
240.352	 -0.280	  0.645
240.356	 -0.275	  0.630
240.360	 -0.260	  0.595
240.364	 -0.210	  0.545
240.368	 -0.155	  0.490
240.372	 -0.105	  0.415
240.376	 -0.065	  0.330
240.380	 -0.045	  0.260
240.384	 -0.025	  0.215
240.388	 -0.015	  0.170
240.392	  0.000	  0.145
240.396	  0.005	  0.130
240.400	  0.025	  0.125
240.404	  0.040	  0.120
240.408	  0.055	  0.120
240.412	  0.055	  0.115
240.416	  0.060	  0.105
240.420	  0.070	  0.090
240.424	  0.075	  0.080
240.428	  0.075	  0.075
240.432	  0.080	  0.080
240.436	  0.080	  0.075
240.440	  0.085	  0.080
240.444	  0.085	  0.080
240.448	  0.090	  0.080
240.452	  0.090	  0.075
240.456	  0.090	  0.075
240.460	  0.105	  0.075
240.464	  0.110	  0.080
240.468	  0.120	  0.080
240.472	  0.125	  0.075
240.476	  0.120	  0.075
240.480	  0.110	  0.075
240.484	  0.115	  0.070
240.488	  0.130	  0.065
240.492	  0.145	  0.065
240.496	  0.155	  0.060
240.500	  0.170	  0.060
240.504	  0.175	  0.060
240.508	  0.195	  0.050
240.512	  0.200	  0.035
240.516	  0.205	  0.035
240.520	  0.200	  0.020
240.524	  0.205	  0.015
240.528	  0.205	  0.015
240.532	  0.195	  0.010
240.536	  0.225	  0.000
240.540	  0.240	 -0.005
240.544	  0.265	 -0.030
240.548	  0.285	 -0.035
240.552	  0.295	 -0.060
240.556	  0.300	 -0.065
240.560	  0.320	 -0.070
240.564	  0.320	 -0.070
240.568	  0.350	 -0.075
240.572	  0.380	 -0.085
240.576	  0.405	 -0.085
240.580	  0.405	 -0.090
240.584	  0.410	 -0.095
240.588	  0.410	 -0.095
240.592	  0.410	 -0.100
240.596	  0.415	 -0.105
240.600	  0.415	 -0.125
240.604	  0.405	 -0.135
240.608	  0.385	 -0.140
240.612	  0.365	 -0.125
240.616	  0.360	 -0.100
240.620	  0.355	 -0.080
240.624	  0.360	 -0.075
240.628	  0.350	 -0.075
240.632	  0.320	 -0.070
240.636	  0.280	 -0.060
240.640	  0.245	 -0.030
240.644	  0.230	  0.005
240.648	  0.230	  0.035
240.652	  0.235	  0.045
240.656	  0.235	  0.045
240.660	  0.210	  0.050
240.664	  0.205	  0.060
240.668	  0.200	  0.065
240.672	  0.190	  0.070
240.676	  0.155	  0.065
240.680	  0.105	  0.055
240.684	  0.090	  0.055
240.688	  0.090	  0.075
240.692	  0.095	  0.095
240.696	  0.105	  0.110
240.700	  0.105	  0.110
240.704	  0.100	  0.100
240.708	  0.100	  0.080
240.712	  0.105	  0.075
240.716	  0.105	  0.070
240.720	  0.110	  0.070
240.724	  0.110	  0.075
240.728	  0.115	  0.075
240.732	  0.115	  0.075
240.736	  0.115	  0.070
240.740	  0.115	  0.070
240.744	  0.115	  0.070
240.748	  0.110	  0.075
240.752	  0.110	  0.075
240.756	  0.115	  0.075
240.760	  0.105	  0.065
240.764	  0.095	  0.060
240.768	  0.085	  0.055
240.772	  0.085	  0.060
240.776	  0.090	  0.080
240.780	  0.090	  0.085
240.784	  0.085	  0.075
240.788	  0.075	  0.055
240.792	  0.065	  0.045
240.796	  0.065	  0.045
240.800	  0.070	  0.045
240.804	  0.070	  0.045
240.808	  0.070	  0.045
240.812	  0.070	  0.045
240.816	  0.065	  0.045
240.820	  0.060	  0.040
240.824	  0.055	  0.040
240.828	  0.055	  0.040
240.832	  0.055	  0.045
240.836	  0.060	  0.045
240.840	  0.055	  0.045
240.844	  0.045	  0.040
240.848	  0.035	  0.030
240.852	  0.025	  0.015
240.856	  0.015	  0.010
240.860	  0.015	  0.010
240.864	  0.020	  0.010
240.868	  0.035	  0.020
240.872	  0.050	  0.040
240.876	  0.060	  0.045
240.880	  0.060	  0.050
240.884	  0.050	  0.045
240.888	  0.030	  0.030
240.892	  0.020	  0.010
240.896	  0.010	  0.010
240.900	  0.015	  0.015
240.904	  0.015	  0.045
240.908	  0.010	  0.070
240.912	  0.015	  0.075
240.916	  0.025	  0.040
240.920	  0.045	  0.025
240.924	  0.040	  0.020
240.928	  0.015	  0.020
240.932	 -0.005	  0.020
240.936	  0.000	  0.020
240.940	  0.005	  0.025
240.944	  0.010	  0.025
240.948	  0.010	  0.010
240.952	 -0.005	  0.000
240.956	  0.000	  0.000
240.960	  0.000	  0.000
240.964	  0.000	  0.000
240.968	  0.015	  0.010
240.972	  0.035	  0.010
240.976	  0.040	  0.010
240.980	  0.045	  0.010
240.984	  0.055	  0.010
240.988	  0.055	  0.020
240.992	  0.040	  0.015
240.996	  0.005	 -0.010
241.000	 -0.010	 -0.040
241.004	 -0.020	 -0.050
241.008	 -0.030	 -0.050
241.012	 -0.040	 -0.050
241.016	 -0.045	 -0.050
241.020	 -0.035	 -0.045
241.024	 -0.030	 -0.010
241.028	  0.015	  0.035
241.032	  0.060	  0.085
241.036	  0.095	  0.120
241.040	  0.105	  0.130
241.044	  0.110	  0.125
241.048	  0.090	  0.100
241.052	  0.060	  0.080
241.056	  0.055	  0.070
241.060	  0.055	  0.075
241.064	  0.115	  0.100
241.068	  0.145	  0.110
241.072	  0.150	  0.090
241.076	  0.125	  0.030
241.080	  0.100	 -0.005
241.084	  0.100	 -0.010
241.088	  0.095	 -0.015
241.092	  0.090	 -0.020
241.096	  0.065	 -0.045
241.100	  0.015	 -0.075
241.104	 -0.010	 -0.085
241.108	 -0.010	 -0.085
241.112	 -0.010	 -0.065
241.116	 -0.020	 -0.050
241.120	 -0.025	 -0.035
241.124	 -0.025	 -0.025
241.128	 -0.020	 -0.020
241.132	 -0.015	 -0.025
241.136	 -0.020	 -0.065
241.140	 -0.040	 -0.100
241.144	 -0.050	 -0.110
241.148	 -0.050	 -0.090
241.152	 -0.045	 -0.055
241.156	 -0.035	 -0.035
241.160	 -0.035	 -0.040
241.164	 -0.035	 -0.045
241.168	 -0.040	 -0.045
241.172	 -0.035	 -0.045
241.176	 -0.045	 -0.050
241.180	 -0.120	 -0.055
241.184	 -0.185	 -0.060
241.188	 -0.195	 -0.065
241.192	 -0.105	 -0.060
241.196	  0.075	 -0.060
241.200	  0.325	 -0.120
241.204	  0.650	 -0.220
241.208	  1.050	 -0.270
241.212	  1.430	 -0.245
241.216	  1.615	 -0.125
241.220	  1.530	  0.030
241.224	  1.100	  0.150
241.228	  0.460	  0.190
241.232	 -0.100	  0.170
241.236	 -0.415	  0.145
241.240	 -0.485	  0.160
241.244	 -0.420	  0.230
241.248	 -0.345	  0.300
241.252	 -0.330	  0.330
241.256	 -0.345	  0.340
241.260	 -0.360	  0.350
241.264	 -0.365	  0.370
241.268	 -0.370	  0.415
241.272	 -0.370	  0.460
241.276	 -0.360	  0.480
241.280	 -0.345	  0.475
241.284	 -0.330	  0.440
241.288	 -0.305	  0.395
241.292	 -0.260	  0.355
241.296	 -0.210	  0.300
241.300	 -0.160	  0.225
241.304	 -0.130	  0.130
241.308	 -0.115	  0.040
241.312	 -0.095	 -0.030
241.316	 -0.080	 -0.080
241.320	 -0.075	 -0.105
241.324	 -0.060	 -0.110
241.328	 -0.050	 -0.115
241.332	 -0.040	 -0.120
241.336	 -0.035	 -0.130
241.340	 -0.020	 -0.135
241.344	 -0.005	 -0.140
241.348	 -0.005	 -0.135
241.352	 -0.005	 -0.140
241.356	  0.000	 -0.145
241.360	  0.000	 -0.145
241.364	 -0.005	 -0.145
241.368	 -0.005	 -0.150
241.372	  0.000	 -0.150
241.376	  0.000	 -0.150
241.380	  0.000	 -0.155
241.384	  0.010	 -0.155
241.388	  0.010	 -0.155
241.392	  0.015	 -0.155
241.396	  0.025	 -0.150
241.400	  0.025	 -0.155
241.404	  0.025	 -0.155
241.408	  0.030	 -0.155
241.412	  0.030	 -0.165
241.416	  0.030	 -0.170
241.420	  0.040	 -0.175
241.424	  0.040	 -0.175
241.428	  0.040	 -0.175
241.432	  0.055	 -0.185
241.436	  0.065	 -0.185
241.440	  0.080	 -0.195
241.444	  0.080	 -0.195
241.448	  0.095	 -0.205
241.452	  0.105	 -0.215
241.456	  0.110	 -0.220
241.460	  0.125	 -0.225
241.464	  0.135	 -0.240
241.468	  0.150	 -0.260
241.472	  0.155	 -0.270
241.476	  0.175	 -0.280
241.480	  0.190	 -0.280
241.484	  0.200	 -0.285
241.488	  0.220	 -0.290
241.492	  0.225	 -0.300
241.496	  0.230	 -0.335
241.500	  0.230	 -0.350
241.504	  0.245	 -0.350
241.508	  0.250	 -0.360
241.512	  0.255	 -0.370
241.516	  0.255	 -0.380
241.520	  0.255	 -0.380
241.524	  0.260	 -0.385
241.528	  0.265	 -0.385
241.532	  0.265	 -0.385
241.536	  0.260	 -0.380
241.540	  0.240	 -0.370
241.544	  0.240	 -0.340
241.548	  0.240	 -0.315
241.552	  0.210	 -0.295
241.556	  0.210	 -0.285
241.560	  0.180	 -0.275
241.564	  0.145	 -0.270
241.568	  0.105	 -0.265
241.572	  0.070	 -0.240
241.576	  0.060	 -0.210
241.580	  0.060	 -0.195
241.584	  0.055	 -0.185
241.588	  0.040	 -0.185
241.592	  0.015	 -0.190
241.596	  0.000	 -0.190
241.600	 -0.005	 -0.180
241.604	 -0.005	 -0.175
241.608	 -0.010	 -0.175
241.612	 -0.030	 -0.175
241.616	 -0.035	 -0.180
241.620	 -0.040	 -0.180
241.624	 -0.045	 -0.170
241.628	 -0.040	 -0.170
241.632	 -0.040	 -0.165
241.636	 -0.045	 -0.170
241.640	 -0.045	 -0.180
241.644	 -0.045	 -0.175
241.648	 -0.045	 -0.175
241.652	 -0.035	 -0.175
241.656	 -0.040	 -0.180
241.660	 -0.045	 -0.180
241.664	 -0.050	 -0.180
241.668	 -0.050	 -0.175
241.672	 -0.055	 -0.180
241.676	 -0.050	 -0.175
241.680	 -0.050	 -0.175
241.684	 -0.045	 -0.170
241.688	 -0.055	 -0.175
241.692	 -0.060	 -0.175
241.696	 -0.065	 -0.175
241.700	 -0.065	 -0.170
241.704	 -0.065	 -0.165
241.708	 -0.070	 -0.175
241.712	 -0.075	 -0.185
241.716	 -0.085	 -0.190
241.720	 -0.090	 -0.190
241.724	 -0.090	 -0.185
241.728	 -0.090	 -0.180
241.732	 -0.090	 -0.195
241.736	 -0.100	 -0.210
241.740	 -0.115	 -0.215
241.744	 -0.115	 -0.210
241.748	 -0.110	 -0.215
241.752	 -0.110	 -0.215
241.756	 -0.115	 -0.210
241.760	 -0.120	 -0.210
241.764	 -0.115	 -0.195
241.768	 -0.115	 -0.190
241.772	 -0.120	 -0.190
241.776	 -0.125	 -0.210
241.780	 -0.135	 -0.230
241.784	 -0.150	 -0.230
241.788	 -0.155	 -0.225
241.792	 -0.145	 -0.220
241.796	 -0.140	 -0.220
241.800	 -0.135	 -0.220
241.804	 -0.135	 -0.220
241.808	 -0.135	 -0.210
241.812	 -0.130	 -0.200
241.816	 -0.125	 -0.200
241.820	 -0.125	 -0.205
241.824	 -0.130	 -0.200
241.828	 -0.130	 -0.200
241.832	 -0.130	 -0.200
241.836	 -0.130	 -0.205
241.840	 -0.125	 -0.200
241.844	 -0.110	 -0.180
241.848	 -0.085	 -0.170
241.852	 -0.085	 -0.170
241.856	 -0.095	 -0.175
241.860	 -0.100	 -0.185
241.864	 -0.115	 -0.190
241.868	 -0.135	 -0.205
241.872	 -0.160	 -0.220
241.876	 -0.155	 -0.220
241.880	 -0.150	 -0.205
241.884	 -0.135	 -0.165
241.888	 -0.125	 -0.135
241.892	 -0.115	 -0.135
241.896	 -0.110	 -0.140
241.900	 -0.110	 -0.130
241.904	 -0.105	 -0.110
241.908	 -0.085	 -0.085
241.912	 -0.050	 -0.075
241.916	 -0.025	 -0.065
241.920	 -0.010	 -0.060
241.924	  0.010	 -0.065
241.928	  0.000	 -0.085
241.932	  0.000	 -0.100
241.936	  0.000	 -0.120
241.940	 -0.005	 -0.135
241.944	 -0.005	 -0.140
241.948	 -0.025	 -0.150
241.952	 -0.050	 -0.155
241.956	 -0.065	 -0.155
241.960	 -0.090	 -0.155
241.964	 -0.120	 -0.155
241.968	 -0.145	 -0.165
241.972	 -0.185	 -0.205
241.976	 -0.190	 -0.215
241.980	 -0.190	 -0.225
241.984	 -0.190	 -0.225
241.988	 -0.185	 -0.225
241.992	 -0.180	 -0.230
241.996	 -0.195	 -0.230
242.000	 -0.185	 -0.235
242.004	 -0.185	 -0.220
242.008	 -0.175	 -0.200
242.012	 -0.175	 -0.205
242.016	 -0.175	 -0.205
242.020	 -0.180	 -0.205
242.024	 -0.165	 -0.205
242.028	 -0.170	 -0.205
242.032	 -0.185	 -0.210
242.036	 -0.215	 -0.210
242.040	 -0.275	 -0.205
242.044	 -0.280	 -0.200
242.048	 -0.245	 -0.195
242.052	 -0.035	 -0.180
242.056	  0.325	 -0.180
242.060	  0.800	 -0.195
242.064	  1.300	 -0.210
242.068	  1.755	 -0.205
242.072	  1.995	 -0.135
242.076	  1.925	 -0.055
242.080	  1.370	  0.005
242.084	  0.560	  0.035
242.088	 -0.165	  0.040
242.092	 -0.540	  0.030
242.096	 -0.615	  0.030
242.100	 -0.555	  0.075
242.104	 -0.500	  0.150
242.108	 -0.490	  0.215
242.112	 -0.505	  0.235
242.116	 -0.540	  0.235
242.120	 -0.540	  0.255
242.124	 -0.555	  0.300
242.128	 -0.550	  0.330
242.132	 -0.550	  0.335
242.136	 -0.555	  0.340
242.140	 -0.545	  0.330
242.144	 -0.490	  0.300
242.148	 -0.425	  0.260
242.152	 -0.370	  0.195
242.156	 -0.310	  0.110
242.160	 -0.265	  0.020
242.164	 -0.245	 -0.050
242.168	 -0.235	 -0.110
242.172	 -0.215	 -0.150
242.176	 -0.200	 -0.180
242.180	 -0.175	 -0.195
242.184	 -0.160	 -0.205
242.188	 -0.160	 -0.210
242.192	 -0.155	 -0.205
242.196	 -0.155	 -0.210
242.200	 -0.150	 -0.215
242.204	 -0.140	 -0.215
242.208	 -0.140	 -0.215
242.212	 -0.130	 -0.215
242.216	 -0.125	 -0.230
242.220	 -0.125	 -0.245
242.224	 -0.120	 -0.250
242.228	 -0.100	 -0.235
242.232	 -0.075	 -0.230
242.236	 -0.075	 -0.245
242.240	 -0.075	 -0.270
242.244	 -0.080	 -0.290
242.248	 -0.090	 -0.290
242.252	 -0.090	 -0.275
242.256	 -0.075	 -0.265
242.260	 -0.060	 -0.260
242.264	 -0.050	 -0.260
242.268	 -0.045	 -0.260
242.272	 -0.040	 -0.260
242.276	 -0.030	 -0.260
242.280	 -0.035	 -0.265
242.284	 -0.025	 -0.270
242.288	 -0.010	 -0.275
242.292	  0.000	 -0.275
242.296	  0.020	 -0.280
242.300	  0.045	 -0.285
242.304	  0.065	 -0.285
242.308	  0.085	 -0.285
242.312	  0.100	 -0.300
242.316	  0.115	 -0.325
242.320	  0.125	 -0.340
242.324	  0.125	 -0.350
242.328	  0.145	 -0.355
242.332	  0.165	 -0.355
242.336	  0.175	 -0.365
242.340	  0.185	 -0.380
242.344	  0.190	 -0.390
242.348	  0.200	 -0.395
242.352	  0.220	 -0.410
242.356	  0.240	 -0.415
242.360	  0.265	 -0.415
242.364	  0.280	 -0.415
242.368	  0.290	 -0.410
242.372	  0.290	 -0.405
242.376	  0.290	 -0.410
242.380	  0.285	 -0.405
242.384	  0.270	 -0.390
242.388	  0.260	 -0.375
242.392	  0.225	 -0.370
242.396	  0.205	 -0.365
242.400	  0.190	 -0.350
242.404	  0.165	 -0.340
242.408	  0.125	 -0.335
242.412	  0.080	 -0.315
242.416	  0.070	 -0.295
242.420	  0.045	 -0.285
242.424	  0.025	 -0.285
242.428	  0.000	 -0.285
242.432	 -0.015	 -0.275
242.436	 -0.030	 -0.245
242.440	 -0.040	 -0.230
242.444	 -0.040	 -0.225
242.448	 -0.060	 -0.220
242.452	 -0.060	 -0.220
242.456	 -0.080	 -0.210
242.460	 -0.095	 -0.200
242.464	 -0.100	 -0.200
242.468	 -0.110	 -0.200
242.472	 -0.120	 -0.210
242.476	 -0.110	 -0.205
242.480	 -0.100	 -0.200
242.484	 -0.095	 -0.200
242.488	 -0.095	 -0.205
242.492	 -0.105	 -0.200
242.496	 -0.105	 -0.205
242.500	 -0.110	 -0.205
242.504	 -0.115	 -0.200
242.508	 -0.115	 -0.200
242.512	 -0.115	 -0.200
242.516	 -0.115	 -0.200
242.520	 -0.115	 -0.195
242.524	 -0.105	 -0.195
242.528	 -0.095	 -0.195
242.532	 -0.095	 -0.210
242.536	 -0.095	 -0.215
242.540	 -0.095	 -0.215
242.544	 -0.100	 -0.220
242.548	 -0.100	 -0.210
242.552	 -0.090	 -0.205
242.556	 -0.095	 -0.205
242.560	 -0.110	 -0.210
242.564	 -0.125	 -0.215
242.568	 -0.130	 -0.220
242.572	 -0.125	 -0.220
242.576	 -0.120	 -0.230
242.580	 -0.120	 -0.235
242.584	 -0.135	 -0.235
242.588	 -0.155	 -0.235
242.592	 -0.160	 -0.230
242.596	 -0.165	 -0.230
242.600	 -0.175	 -0.235
242.604	 -0.180	 -0.235
242.608	 -0.170	 -0.240
242.612	 -0.170	 -0.235
242.616	 -0.165	 -0.235
242.620	 -0.165	 -0.230
242.624	 -0.165	 -0.240
242.628	 -0.160	 -0.245
242.632	 -0.160	 -0.245
242.636	 -0.160	 -0.240
242.640	 -0.165	 -0.240
242.644	 -0.160	 -0.240
242.648	 -0.160	 -0.240
242.652	 -0.160	 -0.240
242.656	 -0.160	 -0.240
242.660	 -0.165	 -0.240
242.664	 -0.170	 -0.240
242.668	 -0.175	 -0.240
242.672	 -0.175	 -0.230
242.676	 -0.170	 -0.220
242.680	 -0.170	 -0.220
242.684	 -0.170	 -0.220
242.688	 -0.180	 -0.225
242.692	 -0.190	 -0.230
242.696	 -0.180	 -0.225
242.700	 -0.155	 -0.215
242.704	 -0.115	 -0.200
242.708	 -0.105	 -0.195
242.712	 -0.105	 -0.185
242.716	 -0.095	 -0.170
242.720	 -0.100	 -0.150
242.724	 -0.105	 -0.135
242.728	 -0.105	 -0.130
242.732	 -0.095	 -0.130
242.736	 -0.070	 -0.130
242.740	 -0.040	 -0.130
242.744	 -0.035	 -0.130
242.748	 -0.035	 -0.130
242.752	 -0.035	 -0.130
242.756	 -0.045	 -0.135
242.760	 -0.040	 -0.150
242.764	 -0.040	 -0.160
242.768	 -0.050	 -0.180
242.772	 -0.085	 -0.200
242.776	 -0.120	 -0.215
242.780	 -0.140	 -0.225
242.784	 -0.165	 -0.220
242.788	 -0.190	 -0.215
242.792	 -0.200	 -0.210
242.796	 -0.200	 -0.215
242.800	 -0.200	 -0.215
242.804	 -0.195	 -0.210
242.808	 -0.195	 -0.210
242.812	 -0.205	 -0.225
242.816	 -0.205	 -0.245
242.820	 -0.190	 -0.250
242.824	 -0.160	 -0.250
242.828	 -0.165	 -0.265
242.832	 -0.200	 -0.315
242.836	 -0.230	 -0.345
242.840	 -0.235	 -0.335
242.844	 -0.225	 -0.310
242.848	 -0.215	 -0.290
242.852	 -0.225	 -0.295
242.856	 -0.260	 -0.310
242.860	 -0.290	 -0.305
242.864	 -0.255	 -0.260
242.868	 -0.105	 -0.200
242.872	  0.170	 -0.175
242.876	  0.555	 -0.170
242.880	  0.995	 -0.175
242.884	  1.440	 -0.170
242.888	  1.770	 -0.165
242.892	  1.870	 -0.155
242.896	  1.645	 -0.125
242.900	  1.035	 -0.070
242.904	  0.275	 -0.050
242.908	 -0.350	 -0.045
242.912	 -0.640	 -0.075
242.916	 -0.645	 -0.090
242.920	 -0.580	 -0.065
242.924	 -0.505	  0.025
242.928	 -0.505	  0.095
242.932	 -0.535	  0.130
242.936	 -0.570	  0.145
242.940	 -0.580	  0.155
242.944	 -0.580	  0.195
242.948	 -0.570	  0.230
242.952	 -0.575	  0.250
242.956	 -0.575	  0.250
242.960	 -0.590	  0.210
242.964	 -0.585	  0.155
242.968	 -0.550	  0.125
242.972	 -0.485	  0.105
242.976	 -0.395	  0.035
242.980	 -0.330	 -0.060
242.984	 -0.305	 -0.135
242.988	 -0.305	 -0.170
242.992	 -0.305	 -0.175
242.996	 -0.300	 -0.180
243.000	 -0.295	 -0.205
243.004	 -0.255	 -0.225
243.008	 -0.205	 -0.235
243.012	 -0.195	 -0.250
243.016	 -0.190	 -0.255
243.020	 -0.185	 -0.270
243.024	 -0.185	 -0.305
243.028	 -0.155	 -0.315
243.032	 -0.140	 -0.315
243.036	 -0.135	 -0.300
243.040	 -0.130	 -0.285
243.044	 -0.130	 -0.285
243.048	 -0.135	 -0.310
243.052	 -0.135	 -0.320
243.056	 -0.115	 -0.310
243.060	 -0.095	 -0.290
243.064	 -0.080	 -0.285
243.068	 -0.085	 -0.295
243.072	 -0.095	 -0.310
243.076	 -0.085	 -0.315
243.080	 -0.085	 -0.310
243.084	 -0.085	 -0.305
243.088	 -0.075	 -0.305
243.092	 -0.075	 -0.310
243.096	 -0.080	 -0.305
243.100	 -0.060	 -0.305
243.104	 -0.075	 -0.310
243.108	 -0.060	 -0.315
243.112	 -0.020	 -0.320
243.116	  0.005	 -0.320
243.120	  0.010	 -0.345
243.124	  0.025	 -0.365
243.128	  0.020	 -0.380
243.132	  0.025	 -0.385
243.136	  0.025	 -0.390
243.140	  0.040	 -0.395
243.144	  0.055	 -0.400
243.148	  0.060	 -0.395
243.152	  0.070	 -0.395
243.156	  0.095	 -0.425
243.160	  0.120	 -0.445
243.164	  0.140	 -0.455
243.168	  0.155	 -0.450
243.172	  0.165	 -0.455
243.176	  0.165	 -0.460
243.180	  0.180	 -0.465
243.184	  0.255	 -0.460
243.188	  0.305	 -0.440
243.192	  0.290	 -0.420
243.196	  0.230	 -0.415
243.200	  0.160	 -0.435
243.204	  0.110	 -0.455
243.208	  0.085	 -0.455
243.212	  0.055	 -0.450
243.216	  0.025	 -0.440
243.220	  0.005	 -0.440
243.224	 -0.005	 -0.435
243.228	 -0.020	 -0.415
243.232	 -0.050	 -0.385
243.236	 -0.095	 -0.360
243.240	 -0.125	 -0.355
243.244	 -0.130	 -0.345
243.248	 -0.130	 -0.325
243.252	 -0.130	 -0.305
243.256	 -0.135	 -0.290
243.260	 -0.135	 -0.265
243.264	 -0.135	 -0.240
243.268	 -0.130	 -0.220
243.272	 -0.130	 -0.200
243.276	 -0.120	 -0.190
243.280	 -0.110	 -0.185
243.284	 -0.105	 -0.185
243.288	 -0.105	 -0.190
243.292	 -0.115	 -0.210
243.296	 -0.120	 -0.225
243.300	 -0.120	 -0.235
243.304	 -0.135	 -0.240
243.308	 -0.130	 -0.225
243.312	 -0.110	 -0.195
243.316	 -0.100	 -0.175
243.320	 -0.080	 -0.190
243.324	 -0.080	 -0.225
243.328	 -0.065	 -0.240
243.332	  0.035	 -0.230
243.336	  0.280	 -0.200
243.340	  0.615	 -0.165
243.344	  0.965	 -0.170
243.348	  1.300	 -0.195
243.352	  1.590	 -0.235
243.356	  1.785	 -0.260
243.360	  1.795	 -0.210
243.364	  1.570	 -0.110
243.368	  1.010	 -0.040
243.372	  0.315	 -0.020
243.376	 -0.210	 -0.020
243.380	 -0.410	 -0.030
243.384	 -0.400	 -0.035
243.388	 -0.340	 -0.015
243.392	 -0.310	  0.035
243.396	 -0.330	  0.095
243.400	 -0.375	  0.130
243.404	 -0.405	  0.150
243.408	 -0.415	  0.175
243.412	 -0.450	  0.230
243.416	 -0.480	  0.285
243.420	 -0.490	  0.295
243.424	 -0.495	  0.285
243.428	 -0.465	  0.225
243.432	 -0.425	  0.170
243.436	 -0.365	  0.135
243.440	 -0.290	  0.080
243.444	 -0.225	 -0.010
243.448	 -0.185	 -0.095
243.452	 -0.160	 -0.140
243.456	 -0.145	 -0.160
243.460	 -0.125	 -0.190
243.464	 -0.095	 -0.220
243.468	 -0.085	 -0.245
243.472	 -0.090	 -0.260
243.476	 -0.090	 -0.270
243.480	 -0.090	 -0.270
243.484	 -0.085	 -0.270
243.488	 -0.080	 -0.270
243.492	 -0.070	 -0.275
243.496	 -0.065	 -0.275
243.500	 -0.065	 -0.275
243.504	 -0.050	 -0.280
243.508	 -0.050	 -0.280
243.512	 -0.045	 -0.280
243.516	 -0.040	 -0.280
243.520	 -0.020	 -0.285
243.524	 -0.015	 -0.280
243.528	 -0.010	 -0.280
243.532	 -0.010	 -0.285
243.536	 -0.010	 -0.285
243.540	  0.000	 -0.285
243.544	  0.020	 -0.290
243.548	  0.040	 -0.290
243.552	  0.065	 -0.290
243.556	  0.075	 -0.290
243.560	  0.075	 -0.300
243.564	  0.075	 -0.315
243.568	  0.135	 -0.320
243.572	  0.170	 -0.325
243.576	  0.195	 -0.335
243.580	  0.210	 -0.345
243.584	  0.250	 -0.365
243.588	  0.265	 -0.385
243.592	  0.290	 -0.400
243.596	  0.315	 -0.405
243.600	  0.340	 -0.405
243.604	  0.370	 -0.405
243.608	  0.390	 -0.415
243.612	  0.400	 -0.415
243.616	  0.425	 -0.425
243.620	  0.435	 -0.425
243.624	  0.445	 -0.430
243.628	  0.450	 -0.435
243.632	  0.435	 -0.435
243.636	  0.420	 -0.440
243.640	  0.395	 -0.435
243.644	  0.370	 -0.425
243.648	  0.345	 -0.420
243.652	  0.305	 -0.415
243.656	  0.260	 -0.405
243.660	  0.220	 -0.390
243.664	  0.180	 -0.370
243.668	  0.150	 -0.350
243.672	  0.120	 -0.350
243.676	  0.090	 -0.345
243.680	  0.060	 -0.335
243.684	  0.040	 -0.310
243.688	  0.025	 -0.285
243.692	  0.005	 -0.270
243.696	 -0.010	 -0.265
243.700	 -0.025	 -0.265
243.704	 -0.040	 -0.265
243.708	 -0.050	 -0.265
243.712	 -0.055	 -0.260
243.716	 -0.065	 -0.255
243.720	 -0.085	 -0.245
243.724	 -0.090	 -0.245
243.728	 -0.090	 -0.245
243.732	 -0.090	 -0.240
243.736	 -0.090	 -0.245
243.740	 -0.090	 -0.245
243.744	 -0.090	 -0.245
243.748	 -0.090	 -0.245
243.752	 -0.095	 -0.245
243.756	 -0.085	 -0.240
243.760	 -0.080	 -0.240
243.764	 -0.085	 -0.240
243.768	 -0.085	 -0.235
243.772	 -0.085	 -0.240
243.776	 -0.085	 -0.240
243.780	 -0.085	 -0.240
243.784	 -0.085	 -0.240
243.788	 -0.080	 -0.240
243.792	 -0.080	 -0.240
243.796	 -0.080	 -0.235
243.800	 -0.090	 -0.230
243.804	 -0.085	 -0.230
243.808	 -0.085	 -0.235
243.812	 -0.090	 -0.230
243.816	 -0.085	 -0.225
243.820	 -0.090	 -0.230
243.824	 -0.090	 -0.230
243.828	 -0.090	 -0.225
243.832	 -0.095	 -0.230
243.836	 -0.095	 -0.230
243.840	 -0.095	 -0.220
243.844	 -0.085	 -0.220
243.848	 -0.085	 -0.220
243.852	 -0.100	 -0.225
243.856	 -0.110	 -0.235
243.860	 -0.115	 -0.235
243.864	 -0.120	 -0.240
243.868	 -0.120	 -0.235
243.872	 -0.120	 -0.230
243.876	 -0.120	 -0.230
243.880	 -0.120	 -0.230
243.884	 -0.120	 -0.225
243.888	 -0.115	 -0.220
243.892	 -0.115	 -0.220
243.896	 -0.115	 -0.220
243.900	 -0.115	 -0.220
243.904	 -0.110	 -0.220
243.908	 -0.105	 -0.220
243.912	 -0.120	 -0.210
243.916	 -0.115	 -0.200
243.920	 -0.110	 -0.200
243.924	 -0.110	 -0.200
243.928	 -0.110	 -0.205
243.932	 -0.110	 -0.210
243.936	 -0.115	 -0.220
243.940	 -0.115	 -0.215
243.944	 -0.115	 -0.210
243.948	 -0.115	 -0.205
243.952	 -0.110	 -0.205
243.956	 -0.095	 -0.205
243.960	 -0.095	 -0.205
243.964	 -0.095	 -0.205
243.968	 -0.095	 -0.205
243.972	 -0.100	 -0.210
243.976	 -0.100	 -0.210
243.980	 -0.105	 -0.210
243.984	 -0.100	 -0.210
243.988	 -0.100	 -0.205
243.992	 -0.100	 -0.210
243.996	 -0.100	 -0.210
244.000	 -0.115	 -0.210
244.004	 -0.105	 -0.210
244.008	 -0.105	 -0.205
244.012	 -0.115	 -0.200
244.016	 -0.110	 -0.200
244.020	 -0.110	 -0.195
244.024	 -0.100	 -0.195
244.028	 -0.100	 -0.190
244.032	 -0.100	 -0.190
244.036	 -0.100	 -0.190
244.040	 -0.100	 -0.190
244.044	 -0.105	 -0.190
244.048	 -0.095	 -0.185
244.052	 -0.095	 -0.180
244.056	 -0.095	 -0.175
244.060	 -0.100	 -0.180
244.064	 -0.105	 -0.185
244.068	 -0.095	 -0.185
244.072	 -0.095	 -0.175
244.076	 -0.100	 -0.180
244.080	 -0.100	 -0.185
244.084	 -0.100	 -0.185
244.088	 -0.100	 -0.180
244.092	 -0.085	 -0.180
244.096	 -0.085	 -0.175
244.100	 -0.090	 -0.175
244.104	 -0.090	 -0.175
244.108	 -0.085	 -0.170
244.112	 -0.085	 -0.175
244.116	 -0.085	 -0.170
244.120	 -0.085	 -0.170
244.124	 -0.085	 -0.170
244.128	 -0.085	 -0.165
244.132	 -0.080	 -0.160
244.136	 -0.080	 -0.160
244.140	 -0.080	 -0.160
244.144	 -0.070	 -0.160
244.148	 -0.080	 -0.160
244.152	 -0.075	 -0.160
244.156	 -0.075	 -0.160
244.160	 -0.080	 -0.160
244.164	 -0.075	 -0.160
244.168	 -0.080	 -0.160
244.172	 -0.080	 -0.155
244.176	 -0.065	 -0.140
244.180	 -0.050	 -0.105
244.184	 -0.025	 -0.070
244.188	 -0.010	 -0.055
244.192	 -0.005	 -0.055
244.196	 -0.005	 -0.060
244.200	 -0.005	 -0.080
244.204	 -0.010	 -0.095
244.208	 -0.010	 -0.110
244.212	 -0.005	 -0.120
244.216	  0.005	 -0.130
244.220	  0.020	 -0.130
244.224	  0.025	 -0.125
244.228	  0.025	 -0.115
244.232	  0.025	 -0.105
244.236	  0.015	 -0.110
244.240	  0.010	 -0.115
244.244	  0.000	 -0.120
244.248	  0.000	 -0.125
244.252	 -0.005	 -0.130
244.256	 -0.015	 -0.125
244.260	 -0.020	 -0.125
244.264	 -0.035	 -0.130
244.268	 -0.050	 -0.130
244.272	 -0.055	 -0.125
244.276	 -0.045	 -0.125
244.280	 -0.045	 -0.130
244.284	 -0.060	 -0.135
244.288	 -0.075	 -0.140
244.292	 -0.075	 -0.145
244.296	 -0.080	 -0.145
244.300	 -0.080	 -0.145
244.304	 -0.090	 -0.145
244.308	 -0.095	 -0.145
244.312	 -0.090	 -0.150
244.316	 -0.090	 -0.150
244.320	 -0.090	 -0.145
244.324	 -0.080	 -0.145
244.328	 -0.085	 -0.145
244.332	 -0.120	 -0.135
244.336	 -0.165	 -0.115
244.340	 -0.175	 -0.075
244.344	 -0.090	 -0.050
244.348	  0.160	 -0.040
244.352	  0.585	 -0.070
244.356	  1.105	 -0.140
244.360	  1.630	 -0.190
244.364	  2.065	 -0.185
244.368	  2.265	 -0.135
244.372	  2.130	 -0.035
244.376	  1.530	  0.040
244.380	  0.655	  0.080
244.384	 -0.120	  0.085
244.388	 -0.530	  0.090
244.392	 -0.590	  0.125
244.396	 -0.510	  0.220
244.400	 -0.415	  0.320
244.404	 -0.410	  0.380
244.408	 -0.420	  0.390
244.412	 -0.445	  0.400
244.416	 -0.465	  0.410
244.420	 -0.465	  0.440
244.424	 -0.460	  0.470
244.428	 -0.455	  0.470
244.432	 -0.455	  0.440
244.436	 -0.430	  0.390
244.440	 -0.375	  0.355
244.444	 -0.300	  0.310
244.448	 -0.240	  0.245
244.452	 -0.175	  0.150
244.456	 -0.135	  0.070
244.460	 -0.115	  0.010
244.464	 -0.110	 -0.030
244.468	 -0.105	 -0.075
244.472	 -0.100	 -0.095
244.476	 -0.090	 -0.095
244.480	 -0.065	 -0.100
244.484	 -0.050	 -0.100
244.488	 -0.050	 -0.100
244.492	 -0.045	 -0.110
244.496	 -0.035	 -0.120
244.500	 -0.030	 -0.125
244.504	 -0.030	 -0.120
244.508	 -0.030	 -0.120
244.512	 -0.025	 -0.120
244.516	 -0.015	 -0.120
244.520	 -0.005	 -0.120
244.524	  0.000	 -0.130
244.528	  0.000	 -0.125
244.532	  0.000	 -0.125
244.536	  0.000	 -0.120
244.540	  0.000	 -0.120
244.544	  0.000	 -0.130
244.548	  0.005	 -0.135
244.552	  0.005	 -0.140
244.556	  0.015	 -0.145
244.560	  0.020	 -0.145
244.564	  0.025	 -0.140
244.568	  0.030	 -0.145
244.572	  0.055	 -0.145
244.576	  0.090	 -0.145
244.580	  0.105	 -0.145
244.584	  0.110	 -0.145
244.588	  0.115	 -0.155
244.592	  0.120	 -0.170
244.596	  0.130	 -0.175
244.600	  0.150	 -0.185
244.604	  0.170	 -0.195
244.608	  0.195	 -0.205
244.612	  0.220	 -0.210
244.616	  0.240	 -0.220
244.620	  0.270	 -0.225
244.624	  0.295	 -0.240
244.628	  0.325	 -0.245
244.632	  0.350	 -0.245
244.636	  0.380	 -0.250
244.640	  0.405	 -0.265
244.644	  0.415	 -0.280
244.648	  0.425	 -0.295
244.652	  0.440	 -0.305
244.656	  0.460	 -0.305
244.660	  0.485	 -0.305
244.664	  0.505	 -0.310
244.668	  0.520	 -0.315
244.672	  0.530	 -0.315
244.676	  0.535	 -0.315
244.680	  0.530	 -0.320
244.684	  0.530	 -0.315
244.688	  0.530	 -0.305
244.692	  0.530	 -0.290
244.696	  0.520	 -0.265
244.700	  0.500	 -0.245
244.704	  0.475	 -0.235
244.708	  0.440	 -0.225
244.712	  0.400	 -0.220
244.716	  0.365	 -0.210
244.720	  0.330	 -0.200
244.724	  0.290	 -0.190
244.728	  0.255	 -0.175
244.732	  0.225	 -0.160
244.736	  0.210	 -0.140
244.740	  0.195	 -0.130
244.744	  0.175	 -0.125
244.748	  0.155	 -0.125
244.752	  0.140	 -0.120
244.756	  0.130	 -0.110
244.760	  0.130	 -0.100
244.764	  0.120	 -0.085
244.768	  0.115	 -0.075
244.772	  0.110	 -0.070
244.776	  0.105	 -0.065
244.780	  0.100	 -0.065
244.784	  0.090	 -0.065
244.788	  0.080	 -0.055
244.792	  0.075	 -0.045
244.796	  0.075	 -0.035
244.800	  0.080	 -0.035
244.804	  0.080	 -0.040
244.808	  0.075	 -0.040
244.812	  0.070	 -0.040
244.816	  0.070	 -0.040
244.820	  0.070	 -0.040
244.824	  0.070	 -0.040
244.828	  0.070	 -0.040
244.832	  0.070	 -0.040
244.836	  0.070	 -0.045
244.840	  0.065	 -0.050
244.844	  0.065	 -0.055
244.848	  0.070	 -0.050
244.852	  0.060	 -0.055
244.856	  0.060	 -0.050
244.860	  0.060	 -0.050
244.864	  0.065	 -0.050
244.868	  0.055	 -0.050
244.872	  0.050	 -0.055
244.876	  0.030	 -0.055
244.880	  0.010	 -0.060
244.884	  0.005	 -0.065
244.888	  0.005	 -0.065
244.892	  0.005	 -0.065
244.896	  0.005	 -0.055
244.900	  0.000	 -0.055
244.904	  0.000	 -0.055
244.908	  0.000	 -0.055
244.912	  0.000	 -0.055
244.916	 -0.005	 -0.055
244.920	 -0.005	 -0.050
244.924	 -0.005	 -0.060
244.928	 -0.005	 -0.055
244.932	 -0.005	 -0.055
244.936	 -0.015	 -0.055
244.940	 -0.015	 -0.060
244.944	 -0.020	 -0.060
244.948	 -0.020	 -0.055
244.952	 -0.005	 -0.045
244.956	 -0.005	 -0.035
244.960	  0.000	 -0.030
244.964	  0.000	 -0.030
244.968	  0.000	 -0.030
244.972	  0.005	 -0.020
244.976	  0.015	 -0.015
244.980	  0.030	 -0.010
244.984	  0.025	 -0.015
244.988	  0.030	 -0.035
244.992	  0.030	 -0.040
244.996	  0.030	 -0.040
245.000	  0.035	 -0.045
245.004	  0.035	 -0.045
245.008	  0.035	 -0.040
245.012	  0.040	 -0.035
245.016	  0.035	 -0.025
245.020	  0.035	 -0.020
245.024	  0.045	 -0.020
245.028	  0.035	 -0.025
245.032	  0.025	 -0.060
245.036	  0.005	 -0.060
245.040	  0.005	 -0.065
245.044	  0.010	 -0.070
245.048	  0.010	 -0.065
245.052	  0.005	 -0.060
245.056	  0.000	 -0.060
245.060	 -0.005	 -0.060
245.064	 -0.005	 -0.055
245.068	 -0.020	 -0.060
245.072	 -0.025	 -0.055
245.076	 -0.040	 -0.055
245.080	 -0.050	 -0.060
245.084	 -0.055	 -0.060
245.088	 -0.050	 -0.060
245.092	 -0.055	 -0.060
245.096	 -0.060	 -0.060
245.100	 -0.060	 -0.060
245.104	 -0.055	 -0.060
245.108	 -0.055	 -0.060
245.112	 -0.060	 -0.055
245.116	 -0.060	 -0.055
245.120	 -0.075	 -0.055
245.124	 -0.125	 -0.045
245.128	 -0.165	 -0.025
245.132	 -0.145	  0.005
245.136	  0.015	  0.030
245.140	  0.320	  0.035
245.144	  0.750	 -0.025
245.148	  1.270	 -0.105
245.152	  1.790	 -0.130
245.156	  2.200	 -0.090
245.160	  2.330	  0.005
245.164	  2.010	  0.110
245.168	  1.285	  0.180
245.172	  0.425	  0.205
245.176	 -0.230	  0.210
245.180	 -0.510	  0.215
245.184	 -0.525	  0.260
245.188	 -0.430	  0.340
245.192	 -0.375	  0.425
245.196	 -0.370	  0.475
245.200	 -0.370	  0.500
245.204	 -0.375	  0.510
245.208	 -0.380	  0.520
245.212	 -0.385	  0.540
245.216	 -0.390	  0.555
245.220	 -0.385	  0.555
245.224	 -0.370	  0.535
245.228	 -0.350	  0.500
245.232	 -0.315	  0.460
245.236	 -0.260	  0.395
245.240	 -0.195	  0.300
245.244	 -0.145	  0.200
245.248	 -0.110	  0.125
245.252	 -0.090	  0.075
245.256	 -0.070	  0.045
245.260	 -0.050	  0.020
245.264	 -0.030	  0.000
245.268	 -0.020	 -0.010
245.272	 -0.020	 -0.025
245.276	 -0.020	 -0.035
245.280	 -0.010	 -0.040
245.284	  0.000	 -0.045
245.288	  0.005	 -0.045
245.292	  0.005	 -0.045
245.296	  0.010	 -0.045
245.300	  0.015	 -0.045
245.304	  0.015	 -0.050
245.308	  0.020	 -0.050
245.312	  0.020	 -0.055
245.316	  0.025	 -0.055
245.320	  0.030	 -0.055
245.324	  0.035	 -0.060
245.328	  0.045	 -0.060
245.332	  0.055	 -0.060
245.336	  0.060	 -0.060
245.340	  0.070	 -0.060
245.344	  0.090	 -0.060
245.348	  0.110	 -0.065
245.352	  0.110	 -0.065
245.356	  0.110	 -0.075
245.360	  0.105	 -0.075
245.364	  0.115	 -0.080
245.368	  0.135	 -0.080
245.372	  0.155	 -0.085
245.376	  0.170	 -0.090
245.380	  0.180	 -0.095
245.384	  0.195	 -0.105
245.388	  0.210	 -0.125
245.392	  0.240	 -0.135
245.396	  0.270	 -0.140
245.400	  0.305	 -0.150
245.404	  0.325	 -0.165
245.408	  0.350	 -0.185
245.412	  0.370	 -0.195
245.416	  0.415	 -0.200
245.420	  0.450	 -0.205
245.424	  0.465	 -0.215
245.428	  0.470	 -0.240
245.432	  0.480	 -0.250
245.436	  0.490	 -0.255
245.440	  0.515	 -0.260
245.444	  0.530	 -0.260
245.448	  0.530	 -0.260
245.452	  0.530	 -0.260
245.456	  0.525	 -0.260
245.460	  0.530	 -0.260
245.464	  0.515	 -0.245
245.468	  0.490	 -0.240
245.472	  0.430	 -0.240
245.476	  0.385	 -0.240
245.480	  0.365	 -0.210
245.484	  0.345	 -0.175
245.488	  0.320	 -0.160
245.492	  0.275	 -0.155
245.496	  0.230	 -0.150
245.500	  0.200	 -0.140
245.504	  0.175	 -0.115
245.508	  0.160	 -0.095
245.512	  0.135	 -0.090
245.516	  0.115	 -0.080
245.520	  0.095	 -0.070
245.524	  0.080	 -0.050
245.528	  0.080	 -0.050
245.532	  0.055	 -0.040
245.536	  0.050	 -0.040
245.540	  0.045	 -0.030
245.544	  0.040	 -0.015
245.548	  0.035	 -0.010
245.552	  0.030	 -0.010
245.556	  0.025	 -0.010
245.560	  0.020	 -0.005
245.564	  0.015	  0.000
245.568	  0.015	  0.000
245.572	  0.020	  0.005
245.576	  0.020	  0.005
245.580	  0.015	  0.005
245.584	  0.015	  0.005
245.588	  0.010	  0.000
245.592	  0.010	  0.000
245.596	  0.010	  0.005
245.600	  0.015	  0.005
245.604	  0.015	  0.005
245.608	  0.010	  0.005
245.612	  0.015	  0.010
245.616	  0.010	  0.005
245.620	  0.015	  0.005
245.624	  0.015	  0.000
245.628	  0.020	  0.000
245.632	  0.010	  0.000
245.636	  0.005	  0.000
245.640	  0.000	  0.005
245.644	  0.005	  0.000
245.648	  0.010	  0.000
245.652	  0.005	 -0.005
245.656	 -0.005	 -0.015
245.660	 -0.005	 -0.015
245.664	 -0.005	 -0.010
245.668	 -0.005	 -0.010
245.672	  0.000	 -0.010
245.676	 -0.005	 -0.010
245.680	 -0.005	 -0.015
245.684	  0.000	 -0.015
245.688	 -0.005	 -0.015
245.692	 -0.005	 -0.015
245.696	 -0.005	 -0.020
245.700	 -0.005	 -0.015
245.704	 -0.015	 -0.010
245.708	 -0.020	 -0.010
245.712	 -0.010	 -0.015
245.716	 -0.015	 -0.010
245.720	 -0.015	 -0.015
245.724	 -0.015	 -0.015
245.728	 -0.020	 -0.015
245.732	 -0.010	 -0.015
245.736	 -0.015	 -0.015
245.740	 -0.020	 -0.015
245.744	 -0.020	 -0.015
245.748	 -0.025	 -0.020
245.752	 -0.025	 -0.015
245.756	 -0.020	 -0.015
245.760	 -0.020	 -0.010
245.764	 -0.020	 -0.010
245.768	 -0.020	 -0.015
245.772	 -0.025	 -0.015
245.776	 -0.025	 -0.015
245.780	 -0.020	 -0.005
245.784	 -0.015	  0.000
245.788	 -0.010	 -0.005
245.792	 -0.010	 -0.005
245.796	 -0.010	 -0.010
245.800	 -0.010	 -0.005
245.804	 -0.005	 -0.005
245.808	 -0.005	 -0.010
245.812	 -0.015	 -0.005
245.816	 -0.015	 -0.005
245.820	 -0.015	 -0.010
245.824	 -0.015	 -0.010
245.828	 -0.010	 -0.015
245.832	 -0.010	 -0.015
245.836	 -0.015	 -0.015
245.840	 -0.015	 -0.015
245.844	 -0.015	 -0.015
245.848	 -0.010	 -0.015
245.852	 -0.010	 -0.015
245.856	 -0.015	 -0.015
245.860	 -0.010	 -0.015
245.864	 -0.005	 -0.020
245.868	 -0.015	 -0.020
245.872	 -0.010	 -0.020
245.876	 -0.010	 -0.015
245.880	 -0.015	 -0.015
245.884	 -0.015	 -0.015
245.888	 -0.010	  0.000
245.892	  0.000	  0.030
245.896	  0.020	  0.050
245.900	  0.040	  0.065
245.904	  0.055	  0.075
245.908	  0.055	  0.085
245.912	  0.055	  0.090
245.916	  0.060	  0.110
245.920	  0.075	  0.135
245.924	  0.105	  0.150
245.928	  0.125	  0.145
245.932	  0.130	  0.125
245.936	  0.140	  0.095
245.940	  0.130	  0.075
245.944	  0.115	  0.060
245.948	  0.110	  0.055
245.952	  0.100	  0.040
245.956	  0.065	  0.025
245.960	  0.045	  0.020
245.964	  0.030	  0.020
245.968	  0.025	  0.020
245.972	  0.020	  0.015
245.976	  0.005	  0.015
245.980	 -0.005	  0.015
245.984	 -0.010	  0.010
245.988	 -0.025	  0.005
245.992	 -0.025	  0.000
245.996	 -0.025	  0.000
246.000	 -0.030	 -0.005
246.004	 -0.030	 -0.010
246.008	 -0.040	 -0.010
246.012	 -0.050	 -0.010
246.016	 -0.055	 -0.010
246.020	 -0.055	 -0.010
246.024	 -0.060	 -0.015
246.028	 -0.060	 -0.015
246.032	 -0.060	 -0.015
246.036	 -0.055	 -0.005
246.040	 -0.055	 -0.005
246.044	 -0.095	 -0.005
246.048	 -0.145	  0.005
246.052	 -0.150	  0.025
246.056	 -0.070	  0.035
246.060	  0.200	  0.040
246.064	  0.630	  0.015
246.068	  1.150	 -0.040
246.072	  1.675	 -0.080
246.076	  2.120	 -0.080
246.080	  2.345	  0.010
246.084	  2.205	  0.130
246.088	  1.595	  0.215
246.092	  0.720	  0.250
246.096	 -0.065	  0.260
246.100	 -0.475	  0.250
246.104	 -0.540	  0.260
246.108	 -0.420	  0.345
246.112	 -0.335	  0.445
246.116	 -0.330	  0.500
246.120	 -0.345	  0.525
246.124	 -0.365	  0.530
246.128	 -0.375	  0.545
246.132	 -0.390	  0.565
246.136	 -0.395	  0.575
246.140	 -0.395	  0.580
246.144	 -0.390	  0.550
246.148	 -0.370	  0.505
246.152	 -0.320	  0.460
246.156	 -0.260	  0.405
246.160	 -0.195	  0.325
246.164	 -0.135	  0.230
246.168	 -0.100	  0.160
246.172	 -0.085	  0.105
246.176	 -0.065	  0.065
246.180	 -0.050	  0.045
246.184	 -0.030	  0.025
246.188	 -0.025	  0.010
246.192	 -0.025	  0.010
246.196	 -0.025	  0.010
246.200	 -0.010	  0.010
246.204	  0.000	  0.005
246.208	  0.000	  0.000
246.212	  0.000	 -0.015
246.216	  0.005	 -0.020
246.220	  0.005	 -0.020
246.224	  0.005	 -0.020
246.228	  0.010	 -0.020
246.232	  0.020	 -0.015
246.236	  0.030	 -0.020
246.240	  0.040	 -0.015
246.244	  0.045	 -0.020
246.248	  0.050	 -0.020
246.252	  0.050	 -0.020
246.256	  0.050	 -0.020
246.260	  0.055	 -0.025
246.264	  0.065	 -0.025
246.268	  0.075	 -0.025
246.272	  0.085	 -0.030
246.276	  0.100	 -0.025
246.280	  0.120	 -0.025
246.284	  0.130	 -0.025
246.288	  0.135	 -0.025
246.292	  0.135	 -0.035
246.296	  0.150	 -0.055
246.300	  0.175	 -0.060
246.304	  0.200	 -0.065
246.308	  0.215	 -0.070
246.312	  0.235	 -0.070
246.316	  0.255	 -0.075
246.320	  0.280	 -0.095
246.324	  0.300	 -0.120
246.328	  0.320	 -0.135
246.332	  0.350	 -0.140
246.336	  0.385	 -0.140
246.340	  0.410	 -0.145
246.344	  0.420	 -0.165
246.348	  0.445	 -0.180
246.352	  0.465	 -0.195
246.356	  0.485	 -0.205
246.360	  0.510	 -0.220
246.364	  0.535	 -0.220
246.368	  0.555	 -0.220
246.372	  0.570	 -0.220
246.376	  0.570	 -0.220
246.380	  0.575	 -0.220
246.384	  0.575	 -0.220
246.388	  0.570	 -0.220
246.392	  0.545	 -0.220
246.396	  0.510	 -0.210
246.400	  0.485	 -0.200
246.404	  0.460	 -0.180
246.408	  0.430	 -0.170
246.412	  0.390	 -0.155
246.416	  0.350	 -0.140
246.420	  0.325	 -0.120
246.424	  0.305	 -0.105
246.428	  0.270	 -0.095
246.432	  0.235	 -0.085
246.436	  0.215	 -0.065
246.440	  0.185	 -0.050
246.444	  0.170	 -0.030
246.448	  0.155	 -0.010
246.452	  0.125	 -0.010
246.456	  0.105	 -0.015
246.460	  0.090	 -0.005
246.464	  0.085	  0.000
246.468	  0.085	  0.005
246.472	  0.080	  0.010
246.476	  0.080	  0.020
246.480	  0.075	  0.020
246.484	  0.075	  0.025
246.488	  0.075	  0.030
246.492	  0.075	  0.030
246.496	  0.070	  0.030
246.500	  0.070	  0.030
246.504	  0.065	  0.030
246.508	  0.055	  0.030
246.512	  0.055	  0.030
246.516	  0.055	  0.040
246.520	  0.060	  0.050
246.524	  0.065	  0.045
246.528	  0.065	  0.045
246.532	  0.070	  0.045
246.536	  0.070	  0.045
246.540	  0.060	  0.040
246.544	  0.060	  0.035
246.548	  0.065	  0.035
246.552	  0.065	  0.035
246.556	  0.065	  0.035
246.560	  0.065	  0.035
246.564	  0.065	  0.030
246.568	  0.055	  0.030
246.572	  0.050	  0.035
246.576	  0.050	  0.035
246.580	  0.050	  0.030
246.584	  0.040	  0.030
246.588	  0.040	  0.030
246.592	  0.035	  0.030
246.596	  0.035	  0.025
246.600	  0.035	  0.025
246.604	  0.030	  0.020
246.608	  0.025	  0.020
246.612	  0.020	  0.015
246.616	  0.020	  0.010
246.620	  0.010	  0.015
246.624	  0.015	  0.015
246.628	  0.020	  0.020
246.632	  0.020	  0.020
246.636	  0.015	  0.015
246.640	  0.010	  0.005
246.644	  0.010	  0.000
246.648	  0.000	  0.000
246.652	  0.000	  0.005
246.656	  0.005	  0.005
246.660	  0.005	  0.010
246.664	  0.000	  0.010
246.668	  0.000	  0.010
246.672	  0.000	  0.010
246.676	  0.005	  0.010
246.680	  0.005	  0.005
246.684	  0.005	  0.010
246.688	  0.005	  0.015
246.692	  0.005	  0.015
246.696	  0.000	  0.010
246.700	  0.000	  0.000
246.704	 -0.005	  0.000
246.708	 -0.005	  0.000
246.712	  0.000	  0.005
246.716	  0.000	  0.005
246.720	  0.000	  0.005
246.724	 -0.005	  0.000
246.728	 -0.005	  0.000
246.732	 -0.005	  0.000
246.736	 -0.005	  0.000
246.740	 -0.005	  0.005
246.744	 -0.005	  0.010
246.748	  0.000	  0.010
246.752	  0.000	  0.005
246.756	 -0.005	  0.005
246.760	  0.000	  0.010
246.764	  0.000	  0.005
246.768	 -0.005	  0.005
246.772	 -0.010	  0.005
246.776	 -0.010	  0.005
246.780	 -0.010	  0.005
246.784	 -0.010	  0.005
246.788	  0.000	  0.005
246.792	  0.000	  0.005
246.796	  0.000	  0.005
246.800	  0.000	  0.000
246.804	  0.000	  0.000
246.808	 -0.005	  0.000
246.812	 -0.005	  0.005
246.816	  0.000	  0.010
246.820	  0.005	  0.010
246.824	  0.005	  0.015
246.828	  0.005	  0.015
246.832	  0.005	  0.015
246.836	  0.005	  0.015
246.840	  0.005	  0.015
246.844	  0.000	  0.020
246.848	  0.000	  0.020
246.852	  0.005	  0.025
246.856	  0.015	  0.045
246.860	  0.040	  0.065
246.864	  0.050	  0.075
246.868	  0.050	  0.085
246.872	  0.050	  0.090
246.876	  0.045	  0.110
246.880	  0.065	  0.140
246.884	  0.090	  0.165
246.888	  0.125	  0.175
246.892	  0.140	  0.170
246.896	  0.140	  0.145
246.900	  0.140	  0.120
246.904	  0.140	  0.110
246.908	  0.135	  0.090
246.912	  0.130	  0.065
246.916	  0.105	  0.050
246.920	  0.070	  0.035
246.924	  0.045	  0.035
246.928	  0.030	  0.035
246.932	  0.025	  0.030
246.936	  0.020	  0.030
246.940	  0.000	  0.030
246.944	  0.000	  0.025
246.948	 -0.010	  0.020
246.952	 -0.005	  0.020
246.956	 -0.005	  0.020
246.960	 -0.010	  0.020
246.964	 -0.010	  0.015
246.968	 -0.020	  0.010
246.972	 -0.020	  0.010
246.976	 -0.020	  0.015
246.980	 -0.015	  0.010
246.984	 -0.020	  0.010
246.988	 -0.030	  0.000
246.992	 -0.035	  0.000
246.996	 -0.030	  0.000
247.000	 -0.030	  0.000
247.004	 -0.035	  0.000
247.008	 -0.040	  0.000
247.012	 -0.110	  0.010
247.016	 -0.145	  0.030
247.020	 -0.125	  0.055
247.024	  0.070	  0.065
247.028	  0.430	  0.070
247.032	  0.900	 -0.010
247.036	  1.445	 -0.060
247.040	  1.955	 -0.070
247.044	  2.330	 -0.005
247.048	  2.390	  0.135
247.052	  1.985	  0.250
247.056	  1.155	  0.285
247.060	  0.250	  0.290
247.064	 -0.345	  0.275
247.068	 -0.500	  0.275
247.072	 -0.435	  0.325
247.076	 -0.345	  0.415
247.080	 -0.330	  0.480
247.084	 -0.350	  0.505
247.088	 -0.395	  0.530
247.092	 -0.400	  0.565
247.096	 -0.400	  0.590
247.100	 -0.400	  0.595
247.104	 -0.385	  0.600
247.108	 -0.395	  0.580
247.112	 -0.380	  0.550
247.116	 -0.330	  0.520
247.120	 -0.260	  0.475
247.124	 -0.195	  0.395
247.128	 -0.145	  0.295
247.132	 -0.110	  0.210
247.136	 -0.085	  0.160
247.140	 -0.050	  0.120
247.144	 -0.035	  0.080
247.148	 -0.020	  0.050
247.152	 -0.015	  0.035
247.156	 -0.010	  0.025
247.160	 -0.005	  0.020
247.164	 -0.010	  0.020
247.168	 -0.005	  0.015
247.172	  0.000	  0.015
247.176	  0.010	  0.015
247.180	  0.020	  0.015
247.184	  0.030	  0.010
247.188	  0.030	  0.000
247.192	  0.030	 -0.005
247.196	  0.035	 -0.010
247.200	  0.030	 -0.015
247.204	  0.045	 -0.015
247.208	  0.060	 -0.015
247.212	  0.065	 -0.015
247.216	  0.070	 -0.015
247.220	  0.070	 -0.010
247.224	  0.085	 -0.015
247.228	  0.095	 -0.020
247.232	  0.095	 -0.025
247.236	  0.100	 -0.025
247.240	  0.105	 -0.030
247.244	  0.115	 -0.025
247.248	  0.130	 -0.025
247.252	  0.155	 -0.025
247.256	  0.175	 -0.025
247.260	  0.175	 -0.030
247.264	  0.175	 -0.045
247.268	  0.180	 -0.050
247.272	  0.200	 -0.055
247.276	  0.225	 -0.060
247.280	  0.245	 -0.070
247.284	  0.260	 -0.080
247.288	  0.280	 -0.085
247.292	  0.315	 -0.085
247.296	  0.345	 -0.095
247.300	  0.360	 -0.110
247.304	  0.385	 -0.125
247.308	  0.420	 -0.140
247.312	  0.450	 -0.155
247.316	  0.465	 -0.165
247.320	  0.470	 -0.175
247.324	  0.485	 -0.185
247.328	  0.490	 -0.200
247.332	  0.505	 -0.195
247.336	  0.520	 -0.195
247.340	  0.530	 -0.200
247.344	  0.540	 -0.210
247.348	  0.545	 -0.210
247.352	  0.540	 -0.210
247.356	  0.530	 -0.200
247.360	  0.515	 -0.185
247.364	  0.500	 -0.165
247.368	  0.480	 -0.155
247.372	  0.440	 -0.145
247.376	  0.405	 -0.130
247.380	  0.365	 -0.115
247.384	  0.320	 -0.100
247.388	  0.285	 -0.085
247.392	  0.260	 -0.075
247.396	  0.225	 -0.065
247.400	  0.205	 -0.050
247.404	  0.185	 -0.025
247.408	  0.165	 -0.010
247.412	  0.145	 -0.005
247.416	  0.130	  0.000
247.420	  0.110	  0.005
247.424	  0.105	  0.010
247.428	  0.100	  0.010
247.432	  0.095	  0.025
247.436	  0.090	  0.040
247.440	  0.080	  0.045
247.444	  0.060	  0.050
247.448	  0.055	  0.050
247.452	  0.055	  0.050
247.456	  0.050	  0.050
247.460	  0.060	  0.050
247.464	  0.060	  0.050
247.468	  0.060	  0.055
247.472	  0.060	  0.055
247.476	  0.055	  0.055
247.480	  0.055	  0.055
247.484	  0.060	  0.055
247.488	  0.060	  0.055
247.492	  0.065	  0.055
247.496	  0.055	  0.050
247.500	  0.050	  0.055
247.504	  0.060	  0.050
247.508	  0.065	  0.050
247.512	  0.065	  0.055
247.516	  0.065	  0.050
247.520	  0.060	  0.050
247.524	  0.065	  0.050
247.528	  0.060	  0.050
247.532	  0.055	  0.045
247.536	  0.055	  0.045
247.540	  0.055	  0.045
247.544	  0.060	  0.045
247.548	  0.050	  0.040
247.552	  0.045	  0.030
247.556	  0.040	  0.030
247.560	  0.035	  0.025
247.564	  0.035	  0.035
247.568	  0.035	  0.035
247.572	  0.040	  0.035
247.576	  0.040	  0.035
247.580	  0.040	  0.035
247.584	  0.040	  0.035
247.588	  0.035	  0.030
247.592	  0.035	  0.030
247.596	  0.030	  0.030
247.600	  0.030	  0.030
247.604	  0.025	  0.030
247.608	  0.030	  0.030
247.612	  0.025	  0.030
247.616	  0.020	  0.025
247.620	  0.020	  0.025
247.624	  0.015	  0.025
247.628	  0.025	  0.025
247.632	  0.030	  0.025
247.636	  0.010	  0.025
247.640	  0.005	  0.025
247.644	  0.010	  0.025
247.648	  0.015	  0.020
247.652	  0.005	  0.015
247.656	  0.010	  0.015
247.660	  0.015	  0.010
247.664	  0.000	  0.010
247.668	  0.005	  0.010
247.672	  0.010	  0.010
247.676	  0.010	  0.010
247.680	  0.010	  0.015
247.684	  0.010	  0.020
247.688	  0.015	  0.025
247.692	  0.015	  0.020
247.696	  0.010	  0.025
247.700	  0.010	  0.030
247.704	  0.005	  0.025
247.708	  0.005	  0.025
247.712	  0.010	  0.025
247.716	  0.005	  0.025
247.720	  0.010	  0.020
247.724	  0.015	  0.020
247.728	  0.010	  0.025
247.732	  0.010	  0.020
247.736	  0.010	  0.020
247.740	  0.005	  0.015
247.744	  0.010	  0.020
247.748	  0.015	  0.025
247.752	  0.015	  0.025
247.756	  0.020	  0.025
247.760	  0.015	  0.025
247.764	  0.010	  0.025
247.768	  0.015	  0.025
247.772	  0.015	  0.020
247.776	  0.015	  0.025
247.780	  0.015	  0.020
247.784	  0.015	  0.020
247.788	  0.015	  0.025
247.792	  0.010	  0.025
247.796	  0.010	  0.025
247.800	  0.020	  0.025
247.804	  0.020	  0.025
247.808	  0.015	  0.020
247.812	  0.015	  0.020
247.816	  0.020	  0.025
247.820	  0.020	  0.025
247.824	  0.015	  0.020
247.828	  0.015	  0.010
247.832	  0.015	  0.010
247.836	  0.015	  0.015
247.840	  0.015	  0.020
247.844	  0.015	  0.020
247.848	  0.020	  0.030
247.852	  0.025	  0.040
247.856	  0.040	  0.065
247.860	  0.055	  0.080
247.864	  0.065	  0.100
247.868	  0.075	  0.125
247.872	  0.075	  0.120
247.876	  0.090	  0.140
247.880	  0.115	  0.155
247.884	  0.140	  0.155
247.888	  0.160	  0.165
247.892	  0.160	  0.160
247.896	  0.170	  0.140
247.900	  0.165	  0.110
247.904	  0.160	  0.095
247.908	  0.150	  0.080
247.912	  0.135	  0.065
247.916	  0.105	  0.055
247.920	  0.075	  0.045
247.924	  0.045	  0.045
247.928	  0.045	  0.040
247.932	  0.040	  0.040
247.936	  0.040	  0.040
247.940	  0.035	  0.040
247.944	  0.025	  0.040
247.948	  0.020	  0.035
247.952	  0.010	  0.030
247.956	  0.000	  0.030
247.960	  0.005	  0.030
247.964	  0.005	  0.025
247.968	  0.000	  0.025
247.972	  0.000	  0.025
247.976	 -0.005	  0.025
247.980	 -0.005	  0.020
247.984	 -0.010	  0.015
247.988	 -0.010	  0.010
247.992	 -0.015	  0.010
247.996	 -0.010	  0.010
248.000	 -0.010	  0.010
248.004	 -0.015	  0.005
248.008	 -0.045	  0.010
248.012	 -0.090	  0.020
248.016	 -0.110	  0.055
248.020	 -0.095	  0.075
248.024	  0.105	  0.080
248.028	  0.485	  0.070
248.032	  0.985	  0.000
248.036	  1.535	 -0.050
248.040	  2.070	 -0.055
248.044	  2.390	  0.025
248.048	  2.405	  0.175
248.052	  1.900	  0.270
248.056	  1.020	  0.305
248.060	  0.130	  0.300
248.064	 -0.385	  0.285
248.068	 -0.490	  0.285
248.072	 -0.405	  0.350
248.076	 -0.325	  0.430
248.080	 -0.315	  0.490
248.084	 -0.360	  0.520
248.088	 -0.390	  0.540
248.092	 -0.395	  0.565
248.096	 -0.395	  0.590
248.100	 -0.390	  0.610
248.104	 -0.390	  0.615
248.108	 -0.380	  0.600
248.112	 -0.340	  0.560
248.116	 -0.295	  0.520
248.120	 -0.230	  0.475
248.124	 -0.165	  0.405
248.128	 -0.090	  0.320
248.132	 -0.060	  0.240
248.136	 -0.045	  0.175
248.140	 -0.035	  0.120
248.144	 -0.035	  0.090
248.148	 -0.015	  0.070
248.152	 -0.015	  0.055
248.156	  0.000	  0.045
248.160	  0.015	  0.040
248.164	  0.025	  0.035
248.168	  0.035	  0.030
248.172	  0.040	  0.030
248.176	  0.040	  0.025
248.180	  0.035	  0.025
248.184	  0.040	  0.025
248.188	  0.045	  0.025
248.192	  0.050	  0.025
248.196	  0.060	  0.025
248.200	  0.065	  0.020
248.204	  0.075	  0.020
248.208	  0.085	  0.020
248.212	  0.095	  0.025
248.216	  0.105	  0.020
248.220	  0.105	  0.010
248.224	  0.100	  0.010
248.228	  0.105	  0.010
248.232	  0.100	  0.005
248.236	  0.110	  0.010
248.240	  0.125	  0.010
248.244	  0.135	  0.010
248.248	  0.145	  0.005
248.252	  0.150	  0.000
248.256	  0.155	 -0.005
248.260	  0.170	 -0.010
248.264	  0.185	 -0.010
248.268	  0.210	 -0.015
248.272	  0.230	 -0.020
248.276	  0.250	 -0.030
248.280	  0.280	 -0.035
248.284	  0.310	 -0.040
248.288	  0.325	 -0.055
248.292	  0.340	 -0.075
248.296	  0.365	 -0.085
248.300	  0.395	 -0.100
248.304	  0.415	 -0.120
248.308	  0.430	 -0.140
248.312	  0.440	 -0.150
248.316	  0.465	 -0.150
248.320	  0.510	 -0.155
248.324	  0.535	 -0.165
248.328	  0.545	 -0.180
248.332	  0.550	 -0.185
248.336	  0.555	 -0.180
248.340	  0.580	 -0.180
248.344	  0.585	 -0.175
248.348	  0.585	 -0.175
248.352	  0.575	 -0.180
248.356	  0.555	 -0.175
248.360	  0.525	 -0.165
248.364	  0.505	 -0.145
248.368	  0.480	 -0.135
248.372	  0.445	 -0.125
248.376	  0.410	 -0.115
248.380	  0.375	 -0.100
248.384	  0.335	 -0.090
248.388	  0.310	 -0.065
248.392	  0.280	 -0.045
248.396	  0.270	 -0.035
248.400	  0.240	 -0.025
248.404	  0.210	 -0.015
248.408	  0.185	  0.000
248.412	  0.165	  0.015
248.416	  0.165	  0.025
248.420	  0.155	  0.030
248.424	  0.130	  0.035
248.428	  0.125	  0.045
248.432	  0.110	  0.040
248.436	  0.110	  0.040
248.440	  0.100	  0.040
248.444	  0.100	  0.045
248.448	  0.095	  0.050
248.452	  0.085	  0.050
248.456	  0.085	  0.070
248.460	  0.085	  0.095
248.464	  0.085	  0.100
248.468	  0.095	  0.100
248.472	  0.095	  0.090
248.476	  0.085	  0.090
248.480	  0.090	  0.090
248.484	  0.085	  0.090
248.488	  0.095	  0.090
248.492	  0.095	  0.085
248.496	  0.100	  0.085
248.500	  0.100	  0.095
248.504	  0.095	  0.090
248.508	  0.095	  0.085
248.512	  0.095	  0.085
248.516	  0.095	  0.085
248.520	  0.090	  0.085
248.524	  0.090	  0.075
248.528	  0.100	  0.080
248.532	  0.085	  0.085
248.536	  0.090	  0.085
248.540	  0.090	  0.075
248.544	  0.075	  0.075
248.548	  0.080	  0.075
248.552	  0.085	  0.060
248.556	  0.080	  0.070
248.560	  0.080	  0.070
248.564	  0.075	  0.070
248.568	  0.055	  0.070
248.572	  0.055	  0.070
248.576	  0.055	  0.055
248.580	  0.055	  0.060
248.584	  0.045	  0.055
248.588	  0.035	  0.055
248.592	  0.030	  0.055
248.596	  0.030	  0.060
248.600	  0.030	  0.060
248.604	  0.030	  0.060
248.608	  0.030	  0.060
248.612	  0.035	  0.060
248.616	  0.035	  0.060
248.620	  0.035	  0.060
248.624	  0.030	  0.060
248.628	  0.030	  0.060
248.632	  0.035	  0.060
248.636	  0.025	  0.050
248.640	  0.025	  0.050
248.644	  0.025	  0.055
248.648	  0.030	  0.055
248.652	  0.030	  0.055
248.656	  0.030	  0.055
248.660	  0.030	  0.050
248.664	  0.025	  0.050
248.668	  0.025	  0.050
248.672	  0.030	  0.045
248.676	  0.030	  0.045
248.680	  0.025	  0.045
248.684	  0.025	  0.045
248.688	  0.020	  0.045
248.692	  0.025	  0.045
248.696	  0.025	  0.050
248.700	  0.025	  0.050
248.704	  0.030	  0.050
248.708	  0.030	  0.050
248.712	  0.030	  0.050
248.716	  0.025	  0.050
248.720	  0.020	  0.055
248.724	  0.025	  0.055
248.728	  0.020	  0.055
248.732	  0.025	  0.055
248.736	  0.025	  0.055
248.740	  0.020	  0.055
248.744	  0.025	  0.055
248.748	  0.020	  0.055
248.752	  0.020	  0.060
248.756	  0.020	  0.060
248.760	  0.020	  0.060
248.764	  0.025	  0.065
248.768	  0.025	  0.060
248.772	  0.020	  0.055
248.776	  0.015	  0.050
248.780	  0.010	  0.045
248.784	  0.010	  0.045
248.788	  0.010	  0.050
248.792	  0.015	  0.055
248.796	  0.015	  0.060
248.800	  0.025	  0.065
248.804	  0.025	  0.065
248.808	  0.025	  0.060
248.812	  0.025	  0.060
248.816	  0.025	  0.060
248.820	  0.025	  0.055
248.824	  0.020	  0.055
248.828	  0.020	  0.060
248.832	  0.030	  0.060
248.836	  0.025	  0.055
248.840	  0.025	  0.060
248.844	  0.025	  0.060
248.848	  0.025	  0.060
248.852	  0.015	  0.060
248.856	  0.025	  0.060
248.860	  0.030	  0.060
248.864	  0.040	  0.065
248.868	  0.045	  0.065
248.872	  0.045	  0.080
248.876	  0.055	  0.120
248.880	  0.060	  0.145
248.884	  0.075	  0.150
248.888	  0.090	  0.150
248.892	  0.080	  0.150
248.896	  0.080	  0.155
248.900	  0.080	  0.155
248.904	  0.100	  0.160
248.908	  0.125	  0.160
248.912	  0.160	  0.155
248.916	  0.170	  0.145
248.920	  0.170	  0.130
248.924	  0.165	  0.115
248.928	  0.135	  0.115
248.932	  0.125	  0.100
248.936	  0.120	  0.105
248.940	  0.110	  0.100
248.944	  0.090	  0.090
248.948	  0.075	  0.085
248.952	  0.060	  0.085
248.956	  0.050	  0.080
248.960	  0.030	  0.070
248.964	  0.025	  0.065
248.968	  0.020	  0.065
248.972	  0.025	  0.070
248.976	  0.020	  0.070
248.980	  0.020	  0.065
248.984	  0.020	  0.065
248.988	  0.015	  0.065
248.992	  0.010	  0.065
248.996	  0.005	  0.065
249.000	  0.005	  0.060
249.004	  0.005	  0.060
249.008	  0.000	  0.060
249.012	  0.005	  0.060
249.016	  0.000	  0.060
249.020	  0.000	  0.060
249.024	 -0.005	  0.065
249.028	 -0.015	  0.065
249.032	 -0.050	  0.065
249.036	 -0.095	  0.080
249.040	 -0.095	  0.090
249.044	  0.050	  0.100
249.048	  0.375	  0.100
249.052	  0.835	  0.065
249.056	  1.380	  0.005
249.060	  1.925	  0.000
249.064	  2.325	  0.025
249.068	  2.430	  0.145
249.072	  2.135	  0.275
249.076	  1.375	  0.340
249.080	  0.460	  0.350
249.084	 -0.210	  0.325
249.088	 -0.455	  0.310
249.092	 -0.435	  0.355
249.096	 -0.315	  0.465
249.100	 -0.275	  0.550
249.104	 -0.290	  0.580
249.108	 -0.345	  0.585
249.112	 -0.365	  0.590
249.116	 -0.365	  0.625
249.120	 -0.355	  0.660
249.124	 -0.360	  0.675
249.128	 -0.350	  0.660
249.132	 -0.340	  0.625
249.136	 -0.295	  0.580
249.140	 -0.235	  0.540
249.144	 -0.170	  0.475
249.148	 -0.120	  0.385
249.152	 -0.075	  0.300
249.156	 -0.050	  0.225
249.160	 -0.030	  0.175
249.164	 -0.010	  0.135
249.168	  0.000	  0.110
249.172	  0.015	  0.095
249.176	  0.025	  0.080
249.180	  0.025	  0.075
249.184	  0.035	  0.070
249.188	  0.050	  0.070
249.192	  0.055	  0.070
249.196	  0.060	  0.065
249.200	  0.065	  0.060
249.204	  0.065	  0.060
249.208	  0.070	  0.055
249.212	  0.080	  0.055
249.216	  0.080	  0.055
249.220	  0.080	  0.055
249.224	  0.080	  0.055
249.228	  0.085	  0.055
249.232	  0.090	  0.050
249.236	  0.095	  0.050
249.240	  0.100	  0.050
249.244	  0.115	  0.050
249.248	  0.120	  0.050
249.252	  0.130	  0.050
249.256	  0.140	  0.050
249.260	  0.145	  0.050
249.264	  0.155	  0.045
249.268	  0.160	  0.045
249.272	  0.165	  0.040
249.276	  0.170	  0.030
249.280	  0.190	  0.020
249.284	  0.210	  0.015
249.288	  0.230	  0.015
249.292	  0.245	  0.025
249.296	  0.255	  0.030
249.300	  0.270	  0.000
249.304	  0.290	 -0.005
249.308	  0.320	 -0.010
249.312	  0.345	 -0.020
249.316	  0.365	 -0.035
249.320	  0.375	 -0.050
249.324	  0.400	 -0.070
249.328	  0.425	 -0.090
249.332	  0.440	 -0.095
249.336	  0.465	 -0.100
249.340	  0.500	 -0.100
249.344	  0.520	 -0.105
249.348	  0.540	 -0.110
249.352	  0.545	 -0.125
249.356	  0.545	 -0.135
249.360	  0.560	 -0.140
249.364	  0.580	 -0.140
249.368	  0.585	 -0.140
249.372	  0.600	 -0.130
249.376	  0.595	 -0.130
249.380	  0.575	 -0.125
249.384	  0.535	 -0.125
249.388	  0.500	 -0.120
249.392	  0.480	 -0.110
249.396	  0.465	 -0.080
249.400	  0.435	 -0.075
249.404	  0.375	 -0.075
249.408	  0.325	 -0.070
249.412	  0.310	 -0.045
249.416	  0.295	 -0.005
249.420	  0.285	  0.010
249.424	  0.265	  0.015
249.428	  0.225	  0.015
249.432	  0.195	  0.020
249.436	  0.175	  0.030
249.440	  0.160	  0.050
249.444	  0.150	  0.070
249.448	  0.145	  0.065
249.452	  0.130	  0.065
249.456	  0.130	  0.070
249.460	  0.120	  0.075
249.464	  0.115	  0.080
249.468	  0.115	  0.080
249.472	  0.110	  0.080
249.476	  0.095	  0.090
249.480	  0.100	  0.090
249.484	  0.105	  0.090
249.488	  0.105	  0.100
249.492	  0.105	  0.100
249.496	  0.105	  0.100
249.500	  0.105	  0.105
249.504	  0.105	  0.105
249.508	  0.105	  0.105
249.512	  0.105	  0.105
249.516	  0.105	  0.100
249.520	  0.100	  0.105
249.524	  0.100	  0.100
249.528	  0.105	  0.100
249.532	  0.110	  0.105
249.536	  0.105	  0.105
249.540	  0.100	  0.100
249.544	  0.085	  0.100
249.548	  0.085	  0.095
249.552	  0.090	  0.090
249.556	  0.090	  0.090
249.560	  0.090	  0.090
249.564	  0.080	  0.090
249.568	  0.080	  0.095
249.572	  0.070	  0.090
249.576	  0.070	  0.090
249.580	  0.075	  0.090
249.584	  0.070	  0.090
249.588	  0.070	  0.090
249.592	  0.075	  0.090
249.596	  0.060	  0.085
249.600	  0.060	  0.085
249.604	  0.060	  0.080
249.608	  0.050	  0.085
249.612	  0.050	  0.080
249.616	  0.040	  0.070
249.620	  0.045	  0.080
249.624	  0.050	  0.075
249.628	  0.045	  0.080
249.632	  0.045	  0.080
249.636	  0.040	  0.080
249.640	  0.030	  0.075
249.644	  0.030	  0.075
249.648	  0.035	  0.075
249.652	  0.040	  0.080
249.656	  0.045	  0.080
249.660	  0.035	  0.075
249.664	  0.035	  0.075
249.668	  0.035	  0.070
249.672	  0.030	  0.070
249.676	  0.030	  0.075
249.680	  0.030	  0.075
249.684	  0.030	  0.070
249.688	  0.025	  0.075
249.692	  0.020	  0.075
249.696	  0.010	  0.075
249.700	  0.010	  0.070
249.704	  0.010	  0.070
249.708	  0.005	  0.070
249.712	  0.005	  0.070
249.716	  0.005	  0.065
249.720	  0.005	  0.065
249.724	  0.010	  0.070
249.728	  0.015	  0.070
249.732	  0.020	  0.070
249.736	  0.010	  0.070
249.740	  0.005	  0.070
249.744	  0.010	  0.070
249.748	  0.005	  0.070
249.752	  0.005	  0.070
249.756	  0.005	  0.070
249.760	  0.005	  0.070
249.764	  0.010	  0.070
249.768	  0.010	  0.070
249.772	  0.010	  0.070
249.776	  0.005	  0.070
249.780	  0.010	  0.070
249.784	  0.010	  0.070
249.788	  0.015	  0.070
249.792	  0.010	  0.070
249.796	  0.005	  0.070
249.800	  0.010	  0.075
249.804	  0.005	  0.070
249.808	  0.005	  0.065
249.812	  0.010	  0.070
249.816	  0.010	  0.070
249.820	  0.005	  0.070
249.824	  0.005	  0.070
249.828	  0.010	  0.070
249.832	  0.005	  0.070
249.836	  0.005	  0.070
249.840	  0.000	  0.070
249.844	  0.000	  0.075
249.848	  0.000	  0.070
249.852	  0.000	  0.070
249.856	  0.000	  0.075
249.860	  0.005	  0.075
249.864	  0.005	  0.075
249.868	  0.005	  0.075
249.872	  0.005	  0.075
249.876	  0.010	  0.070
249.880	  0.015	  0.070
249.884	  0.005	  0.070
249.888	  0.005	  0.070
249.892	  0.010	  0.070
249.896	  0.005	  0.080
249.900	  0.025	  0.115
249.904	  0.040	  0.150
249.908	  0.055	  0.165
249.912	  0.065	  0.175
249.916	  0.060	  0.175
249.920	  0.060	  0.175
249.924	  0.060	  0.175
249.928	  0.065	  0.180
249.932	  0.100	  0.180
249.936	  0.130	  0.170
249.940	  0.135	  0.160
249.944	  0.130	  0.130
249.948	  0.125	  0.110
249.952	  0.100	  0.105
249.956	  0.090	  0.105
249.960	  0.080	  0.105
249.964	  0.065	  0.100
249.968	  0.040	  0.090
249.972	  0.025	  0.085
249.976	  0.015	  0.080
249.980	  0.005	  0.095
249.984	  0.000	  0.080
249.988	  0.000	  0.075
249.992	 -0.005	  0.075
249.996	 -0.010	  0.070
250.000	 -0.020	  0.070
250.004	 -0.020	  0.065
250.008	 -0.025	  0.065
250.012	 -0.025	  0.060
250.016	 -0.025	  0.060
250.020	 -0.025	  0.055
250.024	 -0.035	  0.060
250.028	 -0.025	  0.065
250.032	 -0.025	  0.060
250.036	 -0.025	  0.060
250.040	 -0.030	  0.060
250.044	 -0.030	  0.065
250.048	 -0.035	  0.050
250.052	 -0.065	  0.060
250.056	 -0.110	  0.065
250.060	 -0.140	  0.085
250.064	 -0.115	  0.115
250.068	  0.080	  0.125
250.072	  0.415	  0.115
250.076	  0.885	  0.035
250.080	  1.410	 -0.015
250.084	  1.935	 -0.020
250.088	  2.305	  0.060
250.092	  2.375	  0.190
250.096	  1.960	  0.290
250.100	  1.155	  0.330
250.104	  0.275	  0.335
250.108	 -0.300	  0.325
250.112	 -0.490	  0.320
250.116	 -0.470	  0.360
250.120	 -0.380	  0.455
250.124	 -0.350	  0.535
250.128	 -0.350	  0.575
250.132	 -0.375	  0.575
250.136	 -0.390	  0.595
250.140	 -0.390	  0.625
250.144	 -0.390	  0.670
250.148	 -0.385	  0.680
250.152	 -0.385	  0.665
250.156	 -0.380	  0.620
250.160	 -0.345	  0.580
250.164	 -0.290	  0.540
250.168	 -0.220	  0.480
250.172	 -0.165	  0.390
250.176	 -0.130	  0.295
250.180	 -0.105	  0.220
250.184	 -0.085	  0.165
250.188	 -0.070	  0.125
250.192	 -0.050	  0.100
250.196	 -0.035	  0.085
250.200	 -0.025	  0.080
250.204	 -0.020	  0.075
250.208	 -0.020	  0.070
250.212	 -0.020	  0.055
250.216	 -0.015	  0.050
250.220	 -0.005	  0.055
250.224	  0.005	  0.055
250.228	  0.015	  0.050
250.232	  0.020	  0.055
250.236	  0.025	  0.055
250.240	  0.030	  0.050
250.244	  0.040	  0.055
250.248	  0.050	  0.050
250.252	  0.055	  0.050
250.256	  0.045	  0.040
250.260	  0.040	  0.030
250.264	  0.045	  0.035
250.268	  0.065	  0.040
250.272	  0.080	  0.050
250.276	  0.085	  0.045
250.280	  0.085	  0.040
250.284	  0.085	  0.040
250.288	  0.100	  0.040
250.292	  0.115	  0.035
250.296	  0.125	  0.025
250.300	  0.135	  0.020
250.304	  0.150	  0.040
250.308	  0.160	  0.035
250.312	  0.160	  0.015
250.316	  0.170	  0.000
250.320	  0.170	 -0.050
250.324	  0.190	 -0.095
250.328	  0.230	 -0.005
250.332	  0.250	 -0.015
250.336	  0.265	 -0.025
250.340	  0.285	 -0.035
250.344	  0.310	 -0.045
250.348	  0.340	 -0.060
250.352	  0.360	 -0.075
250.356	  0.380	 -0.085
250.360	  0.410	 -0.085
250.364	  0.440	 -0.095
250.368	  0.455	 -0.105
250.372	  0.465	 -0.115
250.376	  0.465	 -0.130
250.380	  0.470	 -0.125
250.384	  0.495	 -0.125
250.388	  0.515	 -0.160
250.392	  0.520	 -0.240
250.396	  0.515	 -0.130
250.400	  0.500	 -0.130
250.404	  0.480	 -0.125
250.408	  0.470	 -0.120
250.412	  0.445	 -0.110
250.416	  0.425	 -0.095
250.420	  0.405	 -0.080
250.424	  0.370	 -0.065
250.428	  0.320	 -0.050
250.432	  0.285	 -0.030
250.436	  0.260	 -0.020
250.440	  0.235	 -0.005
250.444	  0.195	  0.000
250.448	  0.165	  0.015
250.452	  0.145	  0.030
250.456	  0.130	  0.045
250.460	  0.115	  0.050
250.464	  0.110	  0.070
250.468	  0.105	  0.085
250.472	  0.105	  0.090
250.476	  0.085	  0.090
250.480	  0.055	  0.090
250.484	  0.050	  0.090
250.488	  0.045	  0.095
250.492	  0.045	  0.095
250.496	  0.050	  0.100
250.500	  0.045	  0.100
250.504	  0.045	  0.100
250.508	  0.050	  0.100
250.512	  0.050	  0.100
250.516	  0.050	  0.100
250.520	  0.045	  0.100
250.524	  0.045	  0.100
250.528	  0.055	  0.080
250.532	  0.050	  0.100
250.536	  0.060	  0.105
250.540	  0.060	  0.100
250.544	  0.060	  0.100
250.548	  0.065	  0.100
250.552	  0.060	  0.100
250.556	  0.060	  0.100
250.560	  0.060	  0.105
250.564	  0.050	  0.105
250.568	  0.045	  0.100
250.572	  0.035	  0.090
250.576	  0.030	  0.090
250.580	  0.035	  0.090
250.584	  0.030	  0.090
250.588	  0.030	  0.090
250.592	  0.035	  0.085
250.596	  0.035	  0.065
250.600	  0.035	  0.080
250.604	  0.035	  0.090
250.608	  0.030	  0.090
250.612	  0.030	  0.090
250.616	  0.030	  0.085
250.620	  0.035	  0.090
250.624	  0.030	  0.090
250.628	  0.030	  0.090
250.632	  0.015	  0.085
250.636	  0.020	  0.085
250.640	  0.015	  0.085
250.644	  0.010	  0.085
250.648	  0.010	  0.080
250.652	  0.000	  0.075
250.656	  0.000	  0.070
250.660	 -0.005	  0.070
250.664	 -0.005	  0.075
250.668	 -0.005	  0.080
250.672	  0.000	  0.075
250.676	  0.000	  0.075
250.680	 -0.005	  0.075
250.684	 -0.010	  0.070
250.688	 -0.015	  0.070
250.692	 -0.010	  0.070
250.696	 -0.010	  0.070
250.700	 -0.005	  0.070
250.704	 -0.005	  0.070
250.708	 -0.005	  0.070
250.712	 -0.010	  0.070
250.716	 -0.015	  0.075
250.720	 -0.005	  0.070
250.724	  0.000	  0.070
250.728	 -0.005	  0.060
250.732	 -0.005	  0.060
250.736	 -0.005	  0.060
250.740	 -0.005	  0.065
250.744	 -0.005	  0.060
250.748	  0.000	  0.065
250.752	  0.000	  0.070
250.756	  0.000	  0.065
250.760	  0.000	  0.065
250.764	 -0.005	  0.065
250.768	 -0.005	  0.060
250.772	 -0.015	  0.060
250.776	 -0.020	  0.060
250.780	 -0.020	  0.060
250.784	 -0.015	  0.065
250.788	 -0.015	  0.065
250.792	 -0.015	  0.065
250.796	 -0.020	  0.065
250.800	 -0.015	  0.070
250.804	 -0.015	  0.065
250.808	 -0.015	  0.065
250.812	 -0.015	  0.065
250.816	 -0.010	  0.065
250.820	 -0.010	  0.065
250.824	 -0.015	  0.070
250.828	 -0.015	  0.070
250.832	 -0.005	  0.070
250.836	 -0.005	  0.065
250.840	 -0.005	  0.065
250.844	 -0.005	  0.060
250.848	 -0.015	  0.060
250.852	 -0.015	  0.060
250.856	 -0.005	  0.060
250.860	 -0.010	  0.060
250.864	 -0.015	  0.060
250.868	 -0.010	  0.060
250.872	 -0.015	  0.065
250.876	 -0.010	  0.065
250.880	 -0.005	  0.070
250.884	 -0.005	  0.070
250.888	 -0.005	  0.065
250.892	 -0.010	  0.065
250.896	 -0.015	  0.065
250.900	 -0.010	  0.065
250.904	 -0.005	  0.065
250.908	 -0.010	  0.065
250.912	 -0.010	  0.065
250.916	 -0.015	  0.070
250.920	 -0.005	  0.075
250.924	  0.000	  0.090
250.928	  0.010	  0.120
250.932	  0.025	  0.145
250.936	  0.040	  0.155
250.940	  0.040	  0.165
250.944	  0.050	  0.175
250.948	  0.060	  0.175
250.952	  0.065	  0.195
250.956	  0.070	  0.190
250.960	  0.100	  0.190
250.964	  0.125	  0.175
250.968	  0.125	  0.150
250.972	  0.130	  0.130
250.976	  0.130	  0.110
250.980	  0.125	  0.105
250.984	  0.110	  0.100
250.988	  0.080	  0.090
250.992	  0.060	  0.085
250.996	  0.035	  0.080
251.000	  0.025	  0.075
251.004	  0.010	  0.070
251.008	  0.005	  0.070
251.012	  0.005	  0.070
251.016	  0.000	  0.075
251.020	 -0.015	  0.070
251.024	 -0.030	  0.055
251.028	 -0.035	  0.045
251.032	 -0.035	  0.045
251.036	 -0.035	  0.045
251.040	 -0.035	  0.045
251.044	 -0.035	  0.045
251.048	 -0.040	  0.045
251.052	 -0.040	  0.050
251.056	 -0.035	  0.045
251.060	 -0.035	  0.045
251.064	 -0.025	  0.045
251.068	 -0.030	  0.045
251.072	 -0.035	  0.045
251.076	 -0.060	  0.050
251.080	 -0.110	  0.050
251.084	 -0.140	  0.065
251.088	 -0.140	  0.090
251.092	  0.000	  0.105
251.096	  0.305	  0.105
251.100	  0.755	  0.050
251.104	  1.280	  0.000
251.108	  1.820	 -0.015
251.112	  2.240	  0.030
251.116	  2.390	  0.155
251.120	  2.135	  0.280
251.124	  1.395	  0.330
251.128	  0.465	  0.335
251.132	 -0.235	  0.315
251.136	 -0.490	  0.305
251.140	 -0.465	  0.345
251.144	 -0.370	  0.440
251.148	 -0.320	  0.530
251.152	 -0.325	  0.570
251.156	 -0.355	  0.585
251.160	 -0.380	  0.600
251.164	 -0.385	  0.625
251.168	 -0.385	  0.645
251.172	 -0.385	  0.655
251.176	 -0.390	  0.650
251.180	 -0.380	  0.615
251.184	 -0.340	  0.575
251.188	 -0.290	  0.530
251.192	 -0.245	  0.470
251.196	 -0.195	  0.380
251.200	 -0.145	  0.285
251.204	 -0.120	  0.210
251.208	 -0.105	  0.155
251.212	 -0.085	  0.120
251.216	 -0.070	  0.095
251.220	 -0.055	  0.085
251.224	 -0.040	  0.075
251.228	 -0.025	  0.075
251.232	 -0.010	  0.070
251.236	  0.000	  0.065
251.240	  0.015	  0.065
251.244	  0.005	  0.060
251.248	  0.005	  0.060
251.252	  0.010	  0.060
251.256	  0.015	  0.060
251.260	  0.020	  0.060
251.264	  0.030	  0.060
251.268	  0.030	  0.060
251.272	  0.035	  0.060
251.276	  0.050	  0.060
251.280	  0.050	  0.060
251.284	  0.050	  0.055
251.288	  0.055	  0.050
251.292	  0.060	  0.050
251.296	  0.065	  0.045
251.300	  0.075	  0.045
251.304	  0.080	  0.045
251.308	  0.095	  0.040
251.312	  0.110	  0.040
251.316	  0.120	  0.040
251.320	  0.120	  0.030
251.324	  0.130	  0.030
251.328	  0.145	  0.025
251.332	  0.155	  0.020
251.336	  0.165	  0.010
251.340	  0.175	 -0.005
251.344	  0.195	 -0.015
251.348	  0.210	 -0.025
251.352	  0.230	 -0.030
251.356	  0.250	 -0.035
251.360	  0.270	 -0.045
251.364	  0.285	 -0.060
251.368	  0.305	 -0.080
251.372	  0.330	 -0.105
251.376	  0.345	 -0.115
251.380	  0.360	 -0.125
251.384	  0.380	 -0.125
251.388	  0.400	 -0.125
251.392	  0.435	 -0.135
251.396	  0.455	 -0.140
251.400	  0.470	 -0.150
251.404	  0.485	 -0.155
251.408	  0.490	 -0.160
251.412	  0.490	 -0.155
251.416	  0.490	 -0.155
251.420	  0.505	 -0.145
251.424	  0.495	 -0.155
251.428	  0.495	 -0.155
251.432	  0.475	 -0.140
251.436	  0.440	 -0.120
251.440	  0.415	 -0.100
251.444	  0.385	 -0.085
251.448	  0.345	 -0.085
251.452	  0.315	 -0.080
251.456	  0.275	 -0.065
251.460	  0.255	 -0.035
251.464	  0.225	 -0.015
251.468	  0.210	  0.000
251.472	  0.180	  0.010
251.476	  0.160	  0.020
251.480	  0.150	  0.025
251.484	  0.120	  0.040
251.488	  0.110	  0.040
251.492	  0.095	  0.050
251.496	  0.080	  0.065
251.500	  0.080	  0.080
251.504	  0.080	  0.080
251.508	  0.080	  0.085
251.512	  0.070	  0.085
251.516	  0.070	  0.085
251.520	  0.070	  0.085
251.524	  0.060	  0.085
251.528	  0.050	  0.085
251.532	  0.050	  0.090
251.536	  0.045	  0.090
251.540	  0.045	  0.085
251.544	  0.045	  0.085
251.548	  0.045	  0.085
251.552	  0.055	  0.080
251.556	  0.060	  0.080
251.560	  0.060	  0.085
251.564	  0.060	  0.085
251.568	  0.065	  0.085
251.572	  0.050	  0.085
251.576	  0.060	  0.085
251.580	  0.060	  0.085
251.584	  0.060	  0.085
251.588	  0.060	  0.080
251.592	  0.055	  0.080
251.596	  0.070	  0.080
251.600	  0.055	  0.075
251.604	  0.055	  0.075
251.608	  0.055	  0.070
251.612	  0.045	  0.070
251.616	  0.035	  0.070
251.620	  0.035	  0.060
251.624	  0.020	  0.055
251.628	  0.020	  0.055
251.632	  0.020	  0.055
251.636	  0.025	  0.065
251.640	  0.020	  0.060
251.644	  0.020	  0.060
251.648	  0.020	  0.060
251.652	  0.015	  0.055
251.656	  0.015	  0.055
251.660	  0.015	  0.055
251.664	  0.015	  0.055
251.668	  0.015	  0.055
251.672	  0.010	  0.055
251.676	  0.010	  0.050
251.680	  0.010	  0.055
251.684	  0.010	  0.055
251.688	  0.010	  0.055
251.692	  0.005	  0.055
251.696	  0.005	  0.055
251.700	  0.000	  0.055
251.704	  0.000	  0.055
251.708	  0.000	  0.050
251.712	  0.000	  0.050
251.716	  0.000	  0.050
251.720	  0.000	  0.050
251.724	  0.000	  0.050
251.728	  0.000	  0.050
251.732	  0.000	  0.055
251.736	  0.000	  0.055
251.740	 -0.005	  0.055
251.744	  0.000	  0.055
251.748	  0.000	  0.055
251.752	  0.000	  0.055
251.756	 -0.010	  0.060
251.760	 -0.010	  0.060
251.764	 -0.005	  0.060
251.768	  0.000	  0.065
251.772	 -0.010	  0.060
251.776	 -0.010	  0.055
251.780	 -0.015	  0.060
251.784	 -0.015	  0.060
251.788	 -0.010	  0.055
251.792	 -0.005	  0.055
251.796	 -0.005	  0.060
251.800	 -0.010	  0.055
251.804	 -0.015	  0.055
251.808	 -0.010	  0.055
251.812	 -0.005	  0.055
251.816	 -0.010	  0.055
251.820	 -0.010	  0.055
251.824	 -0.015	  0.050
251.828	 -0.005	  0.050
251.832	 -0.005	  0.055
251.836	  0.000	  0.055
251.840	  0.000	  0.050
251.844	 -0.005	  0.050
251.848	 -0.015	  0.050
251.852	 -0.010	  0.050
251.856	 -0.005	  0.050
251.860	 -0.005	  0.050
251.864	  0.000	  0.055
251.868	  0.000	  0.055
251.872	 -0.010	  0.050
251.876	 -0.010	  0.055
251.880	 -0.015	  0.050
251.884	 -0.015	  0.050
251.888	 -0.010	  0.050
251.892	 -0.015	  0.055
251.896	 -0.005	  0.050
251.900	 -0.005	  0.050
251.904	 -0.010	  0.055
251.908	 -0.010	  0.060
251.912	 -0.010	  0.055
251.916	 -0.010	  0.055
251.920	 -0.010	  0.060
251.924	  0.000	  0.060
251.928	 -0.005	  0.065
251.932	  0.000	  0.070
251.936	  0.000	  0.095
251.940	  0.020	  0.120
251.944	  0.035	  0.140
251.948	  0.045	  0.160
251.952	  0.050	  0.170
251.956	  0.055	  0.170
251.960	  0.070	  0.180
251.964	  0.085	  0.185
251.968	  0.115	  0.185
251.972	  0.110	  0.185
251.976	  0.110	  0.160
251.980	  0.120	  0.135
251.984	  0.115	  0.115
251.988	  0.115	  0.105
251.992	  0.115	  0.095
251.996	  0.095	  0.095
252.000	  0.055	  0.090
252.004	  0.020	  0.085
252.008	  0.020	  0.080
252.012	  0.015	  0.080
252.016	  0.015	  0.075
252.020	  0.015	  0.080
252.024	 -0.005	  0.070
252.028	 -0.010	  0.055
252.032	 -0.030	  0.055
252.036	 -0.040	  0.055
252.040	 -0.030	  0.055
252.044	 -0.020	  0.050
252.048	 -0.020	  0.060
252.052	 -0.030	  0.055
252.056	 -0.030	  0.055
252.060	 -0.040	  0.050
252.064	 -0.035	  0.050
252.068	 -0.040	  0.045
252.072	 -0.045	  0.045
252.076	 -0.035	  0.045
252.080	 -0.040	  0.050
252.084	 -0.070	  0.050
252.088	 -0.125	  0.065
252.092	 -0.145	  0.085
252.096	 -0.085	  0.090
252.100	  0.140	  0.095
252.104	  0.535	  0.070
252.108	  1.045	  0.020
252.112	  1.585	 -0.005
252.116	  2.040	  0.010
252.120	  2.285	  0.130
252.124	  2.175	  0.265
252.128	  1.590	  0.325
252.132	  0.725	  0.340
252.136	 -0.045	  0.315
252.140	 -0.435	  0.305
252.144	 -0.500	  0.340
252.148	 -0.400	  0.425
252.152	 -0.330	  0.500
252.156	 -0.320	  0.535
252.160	 -0.355	  0.555
252.164	 -0.385	  0.575
252.168	 -0.390	  0.600
252.172	 -0.395	  0.630
252.176	 -0.395	  0.640
252.180	 -0.400	  0.640
252.184	 -0.380	  0.615
252.188	 -0.350	  0.575
252.192	 -0.300	  0.540
252.196	 -0.240	  0.480
252.200	 -0.175	  0.395
252.204	 -0.130	  0.295
252.208	 -0.100	  0.215
252.212	 -0.075	  0.160
252.216	 -0.060	  0.125
252.220	 -0.055	  0.100
252.224	 -0.040	  0.080
252.228	 -0.035	  0.070
252.232	 -0.025	  0.065
252.236	 -0.010	  0.060
252.240	  0.000	  0.060
252.244	  0.000	  0.060
252.248	  0.005	  0.055
252.252	  0.010	  0.050
252.256	  0.010	  0.050
252.260	  0.025	  0.050
252.264	  0.035	  0.050
252.268	  0.040	  0.045
252.272	  0.040	  0.045
252.276	  0.040	  0.045
252.280	  0.045	  0.045
252.284	  0.045	  0.045
252.288	  0.050	  0.040
252.292	  0.050	  0.040
252.296	  0.060	  0.040
252.300	  0.075	  0.040
252.304	  0.080	  0.035
252.308	  0.080	  0.030
252.312	  0.080	  0.025
252.316	  0.080	  0.025
252.320	  0.090	  0.020
252.324	  0.100	  0.020
252.328	  0.125	  0.020
252.332	  0.150	  0.020
252.336	  0.160	  0.015
252.340	  0.165	  0.005
252.344	  0.180	  0.000
252.348	  0.190	 -0.010
252.352	  0.205	 -0.010
252.356	  0.240	 -0.010
252.360	  0.260	 -0.020
252.364	  0.270	 -0.045
252.368	  0.275	 -0.055
252.372	  0.290	 -0.065
252.376	  0.320	 -0.065
252.380	  0.350	 -0.070
252.384	  0.385	 -0.095
252.388	  0.400	 -0.120
252.392	  0.400	 -0.130
252.396	  0.415	 -0.140
252.400	  0.440	 -0.135
252.404	  0.465	 -0.140
252.408	  0.470	 -0.150
252.412	  0.475	 -0.145
252.416	  0.480	 -0.150
252.420	  0.480	 -0.160
252.424	  0.485	 -0.155
252.428	  0.485	 -0.150
252.432	  0.485	 -0.140
252.436	  0.485	 -0.130
252.440	  0.475	 -0.115
252.444	  0.435	 -0.115
252.448	  0.410	 -0.100
252.452	  0.370	 -0.085
252.456	  0.350	 -0.075
252.460	  0.325	 -0.055
252.464	  0.290	 -0.035
252.468	  0.265	 -0.015
252.472	  0.230	 -0.010
252.476	  0.195	 -0.010
252.480	  0.160	 -0.005
252.484	  0.145	  0.010
252.488	  0.130	  0.040
252.492	  0.120	  0.035
252.496	  0.105	  0.035
252.500	  0.100	  0.050
252.504	  0.095	  0.065
252.508	  0.085	  0.070
252.512	  0.085	  0.080
252.516	  0.075	  0.080
252.520	  0.070	  0.080
252.524	  0.065	  0.080
252.528	  0.065	  0.085
252.532	  0.070	  0.085
252.536	  0.060	  0.085
252.540	  0.060	  0.090
252.544	  0.065	  0.090
252.548	  0.065	  0.090
252.552	  0.070	  0.095
252.556	  0.070	  0.095
252.560	  0.075	  0.090
252.564	  0.070	  0.100
252.568	  0.065	  0.100
252.572	  0.065	  0.100
252.576	  0.065	  0.100
252.580	  0.075	  0.095
252.584	  0.070	  0.090
252.588	  0.070	  0.090
252.592	  0.075	  0.090
252.596	  0.070	  0.085
252.600	  0.065	  0.085
252.604	  0.060	  0.085
252.608	  0.060	  0.085
252.612	  0.060	  0.085
252.616	  0.055	  0.085
252.620	  0.045	  0.080
252.624	  0.045	  0.075
252.628	  0.040	  0.080
252.632	  0.040	  0.080
252.636	  0.040	  0.085
252.640	  0.035	  0.080
252.644	  0.035	  0.075
252.648	  0.030	  0.080
252.652	  0.030	  0.080
252.656	  0.025	  0.080
252.660	  0.030	  0.075
252.664	  0.025	  0.075
252.668	  0.015	  0.075
252.672	  0.015	  0.075
252.676	  0.015	  0.070
252.680	  0.015	  0.070
252.684	  0.010	  0.070
252.688	  0.010	  0.070
252.692	  0.010	  0.070
252.696	  0.010	  0.070
252.700	  0.010	  0.070
252.704	  0.000	  0.065
252.708	  0.000	  0.065
252.712	  0.000	  0.065
252.716	  0.005	  0.065
252.720	  0.005	  0.065
252.724	  0.005	  0.065
252.728	  0.005	  0.065
252.732	  0.000	  0.065
252.736	  0.000	  0.060
252.740	  0.000	  0.060
252.744	  0.000	  0.065
252.748	  0.005	  0.060
252.752	  0.005	  0.060
252.756	  0.000	  0.055
252.760	 -0.010	  0.055
252.764	 -0.005	  0.055
252.768	  0.000	  0.060
252.772	  0.005	  0.065
252.776	  0.010	  0.065
252.780	  0.010	  0.065
252.784	  0.005	  0.060
252.788	  0.000	  0.055
252.792	  0.000	  0.060
252.796	  0.000	  0.060
252.800	  0.005	  0.060
252.804	  0.000	  0.060
252.808	  0.000	  0.065
252.812	  0.000	  0.065
252.816	  0.005	  0.070
252.820	  0.010	  0.065
252.824	  0.005	  0.060
252.828	  0.000	  0.060
252.832	  0.000	  0.060
252.836	  0.000	  0.060
252.840	  0.000	  0.060
252.844	  0.000	  0.060
252.848	  0.000	  0.060
252.852	  0.000	  0.060
252.856	  0.000	  0.060
252.860	  0.000	  0.060
252.864	  0.000	  0.060
252.868	  0.000	  0.060
252.872	 -0.005	  0.065
252.876	  0.000	  0.065
252.880	  0.000	  0.060
252.884	  0.000	  0.060
252.888	  0.000	  0.060
252.892	  0.000	  0.055
252.896	  0.000	  0.055
252.900	  0.000	  0.065
252.904	  0.005	  0.065
252.908	  0.005	  0.060
252.912	  0.005	  0.060
252.916	  0.005	  0.060
252.920	  0.005	  0.065
252.924	  0.005	  0.065
252.928	  0.005	  0.080
252.932	  0.010	  0.105
252.936	  0.035	  0.120
252.940	  0.045	  0.135
252.944	  0.050	  0.135
252.948	  0.060	  0.145
252.952	  0.055	  0.145
252.956	  0.045	  0.175
252.960	  0.080	  0.215
252.964	  0.120	  0.215
252.968	  0.145	  0.215
252.972	  0.145	  0.185
252.976	  0.140	  0.155
252.980	  0.150	  0.140
252.984	  0.145	  0.125
252.988	  0.135	  0.115
252.992	  0.100	  0.105
252.996	  0.085	  0.095
253.000	  0.075	  0.095
253.004	  0.060	  0.090
253.008	  0.040	  0.090
253.012	  0.030	  0.090
253.016	  0.020	  0.090
253.020	  0.015	  0.090
253.024	  0.000	  0.080
253.028	 -0.015	  0.065
253.032	 -0.025	  0.055
253.036	 -0.030	  0.055
253.040	 -0.035	  0.060
253.044	 -0.035	  0.060
253.048	 -0.030	  0.055
253.052	 -0.030	  0.055
253.056	 -0.030	  0.055
253.060	 -0.030	  0.055
253.064	 -0.040	  0.050
253.068	 -0.035	  0.045
253.072	 -0.035	  0.045
253.076	 -0.035	  0.050
253.080	 -0.035	  0.055
253.084	 -0.050	  0.060
253.088	 -0.085	  0.070
253.092	 -0.110	  0.085
253.096	 -0.070	  0.080
253.100	  0.145	  0.090
253.104	  0.540	  0.065
253.108	  1.050	  0.015
253.112	  1.600	  0.000
253.116	  2.075	  0.020
253.120	  2.335	  0.125
253.124	  2.260	  0.245
253.128	  1.735	  0.315
253.132	  0.895	  0.335
253.136	  0.065	  0.330
253.140	 -0.400	  0.315
253.144	 -0.515	  0.320
253.148	 -0.435	  0.390
253.152	 -0.350	  0.495
253.156	 -0.325	  0.560
253.160	 -0.325	  0.580
253.164	 -0.345	  0.590
253.168	 -0.360	  0.595
253.172	 -0.370	  0.620
253.176	 -0.370	  0.650
253.180	 -0.365	  0.665
253.184	 -0.360	  0.640
253.188	 -0.350	  0.590
253.192	 -0.310	  0.540
253.196	 -0.250	  0.490
253.200	 -0.185	  0.425
253.204	 -0.130	  0.345
253.208	 -0.095	  0.265
253.212	 -0.060	  0.200
253.216	 -0.040	  0.135
253.220	 -0.030	  0.095
253.224	 -0.025	  0.080
253.228	 -0.025	  0.070
253.232	 -0.015	  0.065
253.236	 -0.005	  0.060
253.240	  0.005	  0.055
253.244	  0.020	  0.055
253.248	  0.025	  0.050
253.252	  0.025	  0.050
253.256	  0.025	  0.045
253.260	  0.025	  0.040
253.264	  0.030	  0.040
253.268	  0.040	  0.040
253.272	  0.040	  0.040
253.276	  0.050	  0.040
253.280	  0.055	  0.035
253.284	  0.065	  0.035
253.288	  0.060	  0.030
253.292	  0.060	  0.025
253.296	  0.070	  0.030
253.300	  0.075	  0.030
253.304	  0.090	  0.030
253.308	  0.105	  0.030
253.312	  0.105	  0.025
253.316	  0.115	  0.025
253.320	  0.115	  0.030
253.324	  0.115	  0.030
253.328	  0.135	  0.030
253.332	  0.160	  0.030
253.336	  0.180	  0.030
253.340	  0.205	  0.025
253.344	  0.215	  0.015
253.348	  0.215	 -0.005
253.352	  0.220	 -0.020
253.356	  0.225	 -0.025
253.360	  0.245	 -0.025
253.364	  0.270	 -0.035
253.368	  0.295	 -0.050
253.372	  0.305	 -0.065
253.376	  0.305	 -0.070
253.380	  0.325	 -0.075
253.384	  0.355	 -0.085
253.388	  0.395	 -0.090
253.392	  0.420	 -0.105
253.396	  0.435	 -0.115
253.400	  0.445	 -0.115
253.404	  0.460	 -0.115
253.408	  0.470	 -0.130
253.412	  0.480	 -0.140
253.416	  0.500	 -0.150
253.420	  0.500	 -0.150
253.424	  0.500	 -0.150
253.428	  0.495	 -0.150
253.432	  0.500	 -0.145
253.436	  0.495	 -0.145
253.440	  0.480	 -0.140
253.444	  0.455	 -0.130
253.448	  0.425	 -0.125
253.452	  0.395	 -0.115
253.456	  0.365	 -0.080
253.460	  0.330	 -0.060
253.464	  0.315	 -0.050
253.468	  0.270	 -0.040
253.472	  0.245	 -0.030
253.476	  0.240	 -0.005
253.480	  0.215	  0.005
253.484	  0.190	  0.020
253.488	  0.155	  0.035
253.492	  0.155	  0.050
253.496	  0.145	  0.060
253.500	  0.145	  0.060
253.504	  0.115	  0.060
253.508	  0.100	  0.065
253.512	  0.090	  0.065
253.516	  0.090	  0.080
253.520	  0.090	  0.080
253.524	  0.085	  0.085
253.528	  0.080	  0.080
253.532	  0.080	  0.085
253.536	  0.075	  0.080
253.540	  0.080	  0.075
253.544	  0.080	  0.080
253.548	  0.080	  0.085
253.552	  0.080	  0.085
253.556	  0.085	  0.080
253.560	  0.080	  0.080
253.564	  0.080	  0.085
253.568	  0.075	  0.085
253.572	  0.080	  0.085
253.576	  0.085	  0.090
253.580	  0.080	  0.090
253.584	  0.080	  0.085
253.588	  0.075	  0.090
253.592	  0.075	  0.090
253.596	  0.080	  0.085
253.600	  0.080	  0.080
253.604	  0.065	  0.075
253.608	  0.060	  0.070
253.612	  0.055	  0.070
253.616	  0.055	  0.070
253.620	  0.055	  0.070
253.624	  0.050	  0.070
253.628	  0.050	  0.070
253.632	  0.045	  0.070
253.636	  0.045	  0.070
253.640	  0.045	  0.070
253.644	  0.045	  0.070
253.648	  0.035	  0.065
253.652	  0.035	  0.065
253.656	  0.035	  0.060
253.660	  0.035	  0.060
253.664	  0.035	  0.065
253.668	  0.035	  0.065
253.672	  0.040	  0.060
253.676	  0.045	  0.065
253.680	  0.045	  0.060
253.684	  0.035	  0.060
253.688	  0.020	  0.065
253.692	  0.020	  0.060
253.696	  0.025	  0.060
253.700	  0.025	  0.055
253.704	  0.020	  0.055
253.708	  0.020	  0.055
253.712	  0.020	  0.055
253.716	  0.020	  0.055
253.720	  0.020	  0.055
253.724	  0.025	  0.055
253.728	  0.025	  0.055
253.732	  0.025	  0.055
253.736	  0.025	  0.050
253.740	  0.025	  0.050
253.744	  0.030	  0.055
253.748	  0.030	  0.050
253.752	  0.025	  0.050
253.756	  0.020	  0.050
253.760	  0.020	  0.050
253.764	  0.020	  0.050
253.768	  0.015	  0.045
253.772	  0.015	  0.045
253.776	  0.010	  0.050
253.780	  0.005	  0.050
253.784	  0.010	  0.045
253.788	  0.015	  0.045
253.792	  0.015	  0.050
253.796	  0.010	  0.050
253.800	  0.010	  0.050
253.804	  0.015	  0.050
253.808	  0.015	  0.050
253.812	  0.015	  0.050
253.816	  0.015	  0.050
253.820	  0.020	  0.050
253.824	  0.020	  0.050
253.828	  0.020	  0.050
253.832	  0.025	  0.050
253.836	  0.020	  0.050
253.840	  0.015	  0.040
253.844	  0.015	  0.035
253.848	  0.015	  0.035
253.852	  0.015	  0.035
253.856	  0.015	  0.035
253.860	  0.020	  0.035
253.864	  0.020	  0.035
253.868	  0.020	  0.040
253.872	  0.015	  0.045
253.876	  0.015	  0.055
253.880	  0.015	  0.055
253.884	  0.020	  0.055
253.888	  0.015	  0.055
253.892	  0.015	  0.050
253.896	  0.020	  0.050
253.900	  0.015	  0.045
253.904	  0.015	  0.050
253.908	  0.020	  0.050
253.912	  0.015	  0.050
253.916	  0.015	  0.050
253.920	  0.025	  0.050
253.924	  0.010	  0.050
253.928	  0.020	  0.050
253.932	  0.025	  0.060
253.936	  0.030	  0.085
253.940	  0.050	  0.100
253.944	  0.060	  0.110
253.948	  0.070	  0.110
253.952	  0.070	  0.125
253.956	  0.100	  0.140
253.960	  0.100	  0.155
253.964	  0.115	  0.165
253.968	  0.140	  0.180
253.972	  0.175	  0.185
253.976	  0.180	  0.170
253.980	  0.190	  0.125
253.984	  0.170	  0.095
253.988	  0.160	  0.095
253.992	  0.150	  0.100
253.996	  0.145	  0.090
254.000	  0.110	  0.070
254.004	  0.080	  0.065
254.008	  0.045	  0.055
254.012	  0.040	  0.055
254.016	  0.035	  0.070
254.020	  0.030	  0.060
254.024	  0.030	  0.055
254.028	  0.020	  0.055
254.032	  0.015	  0.055
254.036	  0.015	  0.055
254.040	  0.015	  0.050
254.044	  0.015	  0.050
254.048	  0.015	  0.045
254.052	  0.010	  0.045
254.056	  0.000	  0.045
254.060	  0.000	  0.040
254.064	  0.005	  0.035
254.068	  0.000	  0.035
254.072	 -0.005	  0.035
254.076	  0.000	  0.035
254.080	  0.000	  0.035
254.084	 -0.020	  0.030
254.088	 -0.045	  0.025
254.092	 -0.090	  0.030
254.096	 -0.100	  0.045
254.100	 -0.060	  0.065
254.104	  0.155	  0.075
254.108	  0.550	  0.060
254.112	  1.050	  0.005
254.116	  1.590	 -0.020
254.120	  2.065	 -0.015
254.124	  2.330	  0.070
254.128	  2.285	  0.190
254.132	  1.790	  0.275
254.136	  0.955	  0.310
254.140	  0.130	  0.315
254.144	 -0.340	  0.315
254.148	 -0.455	  0.320
254.152	 -0.370	  0.380
254.156	 -0.285	  0.460
254.160	 -0.265	  0.525
254.164	 -0.300	  0.560
254.168	 -0.325	  0.570
254.172	 -0.335	  0.580
254.176	 -0.340	  0.605
254.180	 -0.345	  0.625
254.184	 -0.345	  0.635
254.188	 -0.350	  0.615
254.192	 -0.340	  0.575
254.196	 -0.315	  0.535
254.200	 -0.245	  0.485
254.204	 -0.165	  0.415
254.208	 -0.100	  0.340
254.212	 -0.055	  0.255
254.216	 -0.040	  0.175
254.220	 -0.040	  0.110
254.224	 -0.035	  0.080
254.228	 -0.020	  0.065
254.232	  0.005	  0.055
254.236	  0.020	  0.050
254.240	  0.030	  0.040
254.244	  0.035	  0.035
254.248	  0.035	  0.030
254.252	  0.035	  0.030
254.256	  0.035	  0.030
254.260	  0.040	  0.030
254.264	  0.050	  0.025
254.268	  0.060	  0.020
254.272	  0.060	  0.025
254.276	  0.070	  0.025
254.280	  0.080	  0.025
254.284	  0.080	  0.025
254.288	  0.090	  0.025
254.292	  0.090	  0.020
254.296	  0.100	  0.015
254.300	  0.105	  0.020
254.304	  0.120	  0.020
254.308	  0.120	  0.015
254.312	  0.120	  0.005
254.316	  0.110	  0.005
254.320	  0.115	  0.005
254.324	  0.130	  0.005
254.328	  0.150	  0.005
254.332	  0.165	  0.000
254.336	  0.170	  0.000
254.340	  0.180	  0.000
254.344	  0.185	  0.000
254.348	  0.205	 -0.005
254.352	  0.220	 -0.005
254.356	  0.235	 -0.005
254.360	  0.245	 -0.015
254.364	  0.260	 -0.020
254.368	  0.295	 -0.030
254.372	  0.330	 -0.050
254.376	  0.345	 -0.065
254.380	  0.350	 -0.085
254.384	  0.350	 -0.100
254.388	  0.370	 -0.115
254.392	  0.385	 -0.125
254.396	  0.410	 -0.125
254.400	  0.440	 -0.125
254.404	  0.475	 -0.125
254.408	  0.495	 -0.140
254.412	  0.500	 -0.150
254.416	  0.505	 -0.160
254.420	  0.505	 -0.160
254.424	  0.510	 -0.160
254.428	  0.510	 -0.160
254.432	  0.510	 -0.160
254.436	  0.505	 -0.160
254.440	  0.515	 -0.150
254.444	  0.510	 -0.140
254.448	  0.475	 -0.145
254.452	  0.445	 -0.135
254.456	  0.425	 -0.130
254.460	  0.395	 -0.110
254.464	  0.365	 -0.090
254.468	  0.345	 -0.080
254.472	  0.320	 -0.050
254.476	  0.295	 -0.025
254.480	  0.270	 -0.005
254.484	  0.235	  0.000
254.488	  0.210	  0.010
254.492	  0.195	  0.015
254.496	  0.185	  0.030
254.500	  0.165	  0.050
254.504	  0.165	  0.060
254.508	  0.150	  0.065
254.512	  0.125	  0.065
254.516	  0.110	  0.065
254.520	  0.110	  0.065
254.524	  0.105	  0.070
254.528	  0.100	  0.075
254.532	  0.100	  0.075
254.536	  0.100	  0.080
254.540	  0.100	  0.075
254.544	  0.105	  0.085
254.548	  0.100	  0.085
254.552	  0.095	  0.085
254.556	  0.095	  0.085
254.560	  0.100	  0.085
254.564	  0.100	  0.085
254.568	  0.100	  0.085
254.572	  0.105	  0.085
254.576	  0.110	  0.080
254.580	  0.115	  0.080
254.584	  0.110	  0.080
254.588	  0.110	  0.070
254.592	  0.110	  0.065
254.596	  0.105	  0.060
254.600	  0.105	  0.055
254.604	  0.095	  0.055
254.608	  0.105	  0.055
254.612	  0.095	  0.055
254.616	  0.095	  0.055
254.620	  0.095	  0.055
254.624	  0.085	  0.055
254.628	  0.085	  0.055
254.632	  0.090	  0.060
254.636	  0.095	  0.060
254.640	  0.085	  0.060
254.644	  0.075	  0.060
254.648	  0.065	  0.060
254.652	  0.065	  0.060
254.656	  0.065	  0.065
254.660	  0.065	  0.065
254.664	  0.065	  0.065
254.668	  0.065	  0.060
254.672	  0.045	  0.055
254.676	  0.045	  0.055
254.680	  0.040	  0.050
254.684	  0.040	  0.050
254.688	  0.040	  0.045
254.692	  0.035	  0.045
254.696	  0.040	  0.050
254.700	  0.045	  0.055
254.704	  0.040	  0.055
254.708	  0.040	  0.055
254.712	  0.045	  0.050
254.716	  0.040	  0.055
254.720	  0.040	  0.060
254.724	  0.040	  0.065
254.728	  0.045	  0.060
254.732	  0.040	  0.055
254.736	  0.030	  0.055
254.740	  0.030	  0.055
254.744	  0.035	  0.055
254.748	  0.045	  0.060
254.752	  0.045	  0.060
254.756	  0.040	  0.055
254.760	  0.030	  0.055
254.764	  0.030	  0.060
254.768	  0.035	  0.060
254.772	  0.035	  0.055
254.776	  0.030	  0.055
254.780	  0.030	  0.055
254.784	  0.035	  0.055
254.788	  0.030	  0.055
254.792	  0.030	  0.055
254.796	  0.035	  0.055
254.800	  0.035	  0.060
254.804	  0.035	  0.060
254.808	  0.030	  0.055
254.812	  0.030	  0.055
254.816	  0.030	  0.055
254.820	  0.025	  0.050
254.824	  0.025	  0.050
254.828	  0.030	  0.055
254.832	  0.030	  0.055
254.836	  0.035	  0.055
254.840	  0.035	  0.055
254.844	  0.030	  0.050
254.848	  0.025	  0.050
254.852	  0.035	  0.050
254.856	  0.035	  0.050
254.860	  0.035	  0.050
254.864	  0.035	  0.055
254.868	  0.030	  0.055
254.872	  0.030	  0.050
254.876	  0.030	  0.050
254.880	  0.030	  0.055
254.884	  0.035	  0.055
254.888	  0.035	  0.055
254.892	  0.040	  0.055
254.896	  0.030	  0.055
254.900	  0.025	  0.055
254.904	  0.025	  0.055
254.908	  0.025	  0.055
254.912	  0.025	  0.055
254.916	  0.035	  0.060
254.920	  0.030	  0.055
254.924	  0.030	  0.055
254.928	  0.040	  0.075
254.932	  0.050	  0.105
254.936	  0.065	  0.125
254.940	  0.080	  0.135
254.944	  0.075	  0.135
254.948	  0.070	  0.145
254.952	  0.085	  0.160
254.956	  0.100	  0.180
254.960	  0.130	  0.190
254.964	  0.155	  0.195
254.968	  0.170	  0.190
254.972	  0.170	  0.175
254.976	  0.170	  0.160
254.980	  0.165	  0.145
254.984	  0.155	  0.135
254.988	  0.155	  0.130
254.992	  0.140	  0.110
254.996	  0.100	  0.090