 43.000	  2.855	 -1.135
 43.004	  2.845	 -1.525
 43.008	  2.840	 -1.910
 43.012	  2.835	 -2.035
 43.016	  2.825	 -2.155
 43.020	  2.725	 -2.175
 43.024	  2.480	 -2.130
 43.028	  1.310	 -1.690
 43.032	  0.320	 -1.245
 43.036	  0.085	 -0.785
 43.040	 -0.110	 -0.385
 43.044	 -0.180	 -0.190
 43.048	 -0.245	 -0.040
 43.052	 -0.290	  0.010
 43.056	 -0.340	  0.055
 43.060	 -0.385	  0.085
 43.064	 -0.420	  0.105
 43.068	 -0.435	  0.115
 43.072	 -0.445	  0.130
 43.076	 -0.450	  0.150
 43.080	 -0.455	  0.165
 43.084	 -0.470	  0.165
 43.088	 -0.475	  0.165
 43.092	 -0.475	  0.170
 43.096	 -0.465	  0.175
 43.100	 -0.455	  0.175
 43.104	 -0.455	  0.180
 43.108	 -0.455	  0.190
 43.112	 -0.455	  0.195
 43.116	 -0.455	  0.195
 43.120	 -0.455	  0.195
 43.124	 -0.455	  0.200
 43.128	 -0.455	  0.205
 43.132	 -0.455	  0.210
 43.136	 -0.450	  0.220
 43.140	 -0.445	  0.230
 43.144	 -0.445	  0.235
 43.148	 -0.445	  0.240
 43.152	 -0.450	  0.245
 43.156	 -0.460	  0.250
 43.160	 -0.460	  0.260
 43.164	 -0.455	  0.270
 43.168	 -0.460	  0.290
 43.172	 -0.465	  0.305
 43.176	 -0.475	  0.315
 43.180	 -0.485	  0.325
 43.184	 -0.500	  0.340
 43.188	 -0.515	  0.355
 43.192	 -0.530	  0.370
 43.196	 -0.550	  0.385
 43.200	 -0.580	  0.405
 43.204	 -0.610	  0.425
 43.208	 -0.640	  0.440
 43.212	 -0.670	  0.455
 43.216	 -0.700	  0.470
 43.220	 -0.730	  0.485
 43.224	 -0.755	  0.495
 43.228	 -0.780	  0.505
 43.232	 -0.800	  0.510
 43.236	 -0.815	  0.510
 43.240	 -0.825	  0.505
 43.244	 -0.825	  0.490
 43.248	 -0.810	  0.465
 43.252	 -0.780	  0.435
 43.256	 -0.735	  0.405
 43.260	 -0.675	  0.375
 43.264	 -0.610	  0.345
 43.268	 -0.545	  0.305
 43.272	 -0.485	  0.260
 43.276	 -0.425	  0.215
 43.280	 -0.360	  0.175
 43.284	 -0.300	  0.140
 43.288	 -0.240	  0.100
 43.292	 -0.195	  0.070
 43.296	 -0.160	  0.040
 43.300	 -0.130	  0.020
 43.304	 -0.100	  0.005
 43.308	 -0.085	 -0.010
 43.312	 -0.075	 -0.030
 43.316	 -0.065	 -0.035
 43.320	 -0.055	 -0.040
 43.324	 -0.050	 -0.045
 43.328	 -0.045	 -0.045
 43.332	 -0.045	 -0.045
 43.336	 -0.055	 -0.055
 43.340	 -0.055	 -0.055
 43.344	 -0.050	 -0.055
 43.348	 -0.045	 -0.055
 43.352	 -0.045	 -0.055
 43.356	 -0.050	 -0.055
 43.360	 -0.050	 -0.050
 43.364	 -0.045	 -0.045
 43.368	 -0.045	 -0.045
 43.372	 -0.050	 -0.050
 43.376	 -0.050	 -0.050
 43.380	 -0.035	 -0.045
 43.384	 -0.015	 -0.040
 43.388	  0.005	 -0.035
 43.392	  0.045	 -0.020
 43.396	  0.105	  0.020
 43.400	  0.175	  0.050
 43.404	  0.250	  0.070
 43.408	  0.305	  0.085
 43.412	  0.335	  0.085
 43.416	  0.385	  0.080
 43.420	  0.460	  0.065
 43.424	  0.495	  0.065
 43.428	  0.495	  0.070
 43.432	  0.460	  0.065
 43.436	  0.405	  0.050
 43.440	  0.350	  0.015
 43.444	  0.300	 -0.020
 43.448	  0.240	 -0.035
 43.452	  0.180	 -0.035
 43.456	  0.120	 -0.045
 43.460	  0.055	 -0.060
 43.464	  0.015	 -0.075
 43.468	 -0.015	 -0.090
 43.472	 -0.025	 -0.100
 43.476	 -0.030	 -0.110
 43.480	 -0.050	 -0.115
 43.484	 -0.070	 -0.115
 43.488	 -0.080	 -0.120
 43.492	 -0.090	 -0.130
 43.496	 -0.105	 -0.135
 43.500	 -0.125	 -0.145
 43.504	 -0.130	 -0.150
 43.508	 -0.130	 -0.155
 43.512	 -0.125	 -0.155
 43.516	 -0.125	 -0.155
 43.520	 -0.135	 -0.155
 43.524	 -0.145	 -0.155
 43.528	 -0.145	 -0.155
 43.532	 -0.145	 -0.155
 43.536	 -0.145	 -0.155
 43.540	 -0.145	 -0.150
 43.544	 -0.150	 -0.140
 43.548	 -0.165	 -0.115
 43.552	 -0.210	 -0.045
 43.556	 -0.215	 -0.010
 43.560	 -0.140	 -0.025
 43.564	  0.040	 -0.045
 43.568	  0.410	 -0.080
 43.572	  0.870	 -0.165
 43.576	  1.460	 -0.305
 43.580	  2.015	 -0.530
 43.584	  2.540	 -0.840
 43.588	  2.800	 -1.215
 43.592	  2.810	 -1.650
 43.596	  2.805	 -1.935
 43.600	  2.795	 -2.100
 43.604	  2.710	 -2.185
 43.608	  2.580	 -2.220
 43.612	  1.780	 -1.995
 43.616	  0.635	 -1.630
 43.620	  0.125	 -1.190
 43.624	 -0.105	 -0.710
 43.628	 -0.205	 -0.420
 43.632	 -0.260	 -0.190
 43.636	 -0.310	 -0.085
 43.640	 -0.355	 -0.015
 43.644	 -0.395	  0.020
 43.648	 -0.440	  0.050
 43.652	 -0.465	  0.060
 43.656	 -0.490	  0.070
 43.660	 -0.495	  0.085
 43.664	 -0.500	  0.100
 43.668	 -0.510	  0.110
 43.672	 -0.515	  0.115
 43.676	 -0.515	  0.125
 43.680	 -0.515	  0.130
 43.684	 -0.515	  0.125
 43.688	 -0.510	  0.125
 43.692	 -0.500	  0.125
 43.696	 -0.490	  0.125
 43.700	 -0.485	  0.135
 43.704	 -0.480	  0.145
 43.708	 -0.475	  0.145
 43.712	 -0.475	  0.145
 43.716	 -0.475	  0.145
 43.720	 -0.470	  0.145
 43.724	 -0.465	  0.155
 43.728	 -0.460	  0.165
 43.732	 -0.455	  0.175
 43.736	 -0.455	  0.185
 43.740	 -0.455	  0.190
 43.744	 -0.455	  0.190
 43.748	 -0.460	  0.185
 43.752	 -0.465	  0.195
 43.756	 -0.465	  0.215
 43.760	 -0.465	  0.230
 43.764	 -0.465	  0.245
 43.768	 -0.470	  0.265
 43.772	 -0.485	  0.285
 43.776	 -0.505	  0.295
 43.780	 -0.525	  0.300
 43.784	 -0.545	  0.315
 43.788	 -0.560	  0.335
 43.792	 -0.580	  0.360
 43.796	 -0.605	  0.380
 43.800	 -0.635	  0.390
 43.804	 -0.660	  0.400
 43.808	 -0.685	  0.405
 43.812	 -0.710	  0.405
 43.816	 -0.720	  0.405
 43.820	 -0.730	  0.405
 43.824	 -0.730	  0.395
 43.828	 -0.725	  0.385
 43.832	 -0.695	  0.365
 43.836	 -0.660	  0.340
 43.840	 -0.610	  0.305
 43.844	 -0.560	  0.270
 43.848	 -0.495	  0.235
 43.852	 -0.435	  0.200
 43.856	 -0.380	  0.155
 43.860	 -0.325	  0.115
 43.864	 -0.285	  0.080
 43.868	 -0.245	  0.045
 43.872	 -0.210	  0.015
 43.876	 -0.175	 -0.010
 43.880	 -0.155	 -0.030
 43.884	 -0.140	 -0.045
 43.888	 -0.135	 -0.055
 43.892	 -0.135	 -0.065
 43.896	 -0.135	 -0.070
 43.900	 -0.135	 -0.075
 43.904	 -0.140	 -0.080
 43.908	 -0.145	 -0.085
 43.912	 -0.145	 -0.090
 43.916	 -0.145	 -0.090
 43.920	 -0.145	 -0.075
 43.924	 -0.140	 -0.075
 43.928	 -0.135	 -0.075
 43.932	 -0.135	 -0.075
 43.936	 -0.140	 -0.080
 43.940	 -0.135	 -0.085
 43.944	 -0.125	 -0.085
 43.948	 -0.115	 -0.085
 43.952	 -0.105	 -0.085
 43.956	 -0.100	 -0.085
 43.960	 -0.095	 -0.090
 43.964	 -0.090	 -0.095
 43.968	 -0.085	 -0.100
 43.972	 -0.070	 -0.105
 43.976	 -0.055	 -0.105
 43.980	 -0.055	 -0.105
 43.984	 -0.055	 -0.110
 43.988	 -0.050	 -0.110
 43.992	 -0.045	 -0.105
 43.996	 -0.045	 -0.110
 44.000	 -0.045	 -0.125
 44.004	 -0.035	 -0.125
 44.008	 -0.035	 -0.125
 44.012	 -0.035	 -0.130
 44.016	 -0.035	 -0.135
 44.020	 -0.040	 -0.135
 44.024	 -0.045	 -0.135
 44.028	 -0.045	 -0.140
 44.032	 -0.045	 -0.145
 44.036	 -0.045	 -0.145
 44.040	 -0.045	 -0.145
 44.044	 -0.050	 -0.145
 44.048	 -0.055	 -0.145
 44.052	 -0.055	 -0.145
 44.056	 -0.055	 -0.145
 44.060	 -0.065	 -0.150
 44.064	 -0.070	 -0.155
 44.068	 -0.065	 -0.155
 44.072	 -0.055	 -0.150
 44.076	 -0.040	 -0.145
 44.080	 -0.025	 -0.135
 44.084	  0.000	 -0.120
 44.088	  0.010	 -0.110
 44.092	  0.020	 -0.105
 44.096	  0.030	 -0.095
 44.100	  0.040	 -0.080
 44.104	  0.085	 -0.055
 44.108	  0.160	 -0.030
 44.112	  0.225	 -0.025
 44.116	  0.285	 -0.030
 44.120	  0.305	 -0.055
 44.124	  0.310	 -0.085
 44.128	  0.350	 -0.100
 44.132	  0.400	 -0.110
 44.136	  0.360	 -0.120
 44.140	  0.295	 -0.130
 44.144	  0.245	 -0.130
 44.148	  0.200	 -0.125
 44.152	  0.140	 -0.130
 44.156	  0.085	 -0.140
 44.160	  0.040	 -0.155
 44.164	  0.000	 -0.170
 44.168	 -0.040	 -0.180
 44.172	 -0.075	 -0.185
 44.176	 -0.080	 -0.185
 44.180	 -0.085	 -0.185
 44.184	 -0.100	 -0.190
 44.188	 -0.115	 -0.195
 44.192	 -0.125	 -0.200
 44.196	 -0.135	 -0.205
 44.200	 -0.135	 -0.205
 44.204	 -0.135	 -0.200
 44.208	 -0.150	 -0.195
 44.212	 -0.165	 -0.195
 44.216	 -0.165	 -0.195
 44.220	 -0.160	 -0.195
 44.224	 -0.155	 -0.195
 44.228	 -0.150	 -0.195
 44.232	 -0.145	 -0.195
 44.236	 -0.145	 -0.190
 44.240	 -0.145	 -0.185
 44.244	 -0.145	 -0.180
 44.248	 -0.145	 -0.175
 44.252	 -0.165	 -0.145
 44.256	 -0.205	 -0.090
 44.260	 -0.195	 -0.065
 44.264	 -0.145	 -0.065
 44.268	  0.095	 -0.085
 44.272	  0.470	 -0.120
 44.276	  0.945	 -0.225
 44.280	  1.485	 -0.370
 44.284	  2.010	 -0.605
 44.288	  2.525	 -0.890
 44.292	  2.710	 -1.280
 44.296	  2.770	 -1.710
 44.300	  2.775	 -1.965
 44.304	  2.765	 -2.175
 44.308	  2.760	 -2.250
 44.312	  2.755	 -2.295
 44.316	  1.850	 -2.160
 44.320	  0.825	 -1.995
 44.324	  0.340	 -1.465
 44.328	 -0.090	 -0.900
 44.332	 -0.165	 -0.570
 44.336	 -0.235	 -0.250
 44.340	 -0.280	 -0.155
 44.344	 -0.325	 -0.060
 44.348	 -0.370	 -0.030
 44.352	 -0.415	  0.000
 44.356	 -0.440	  0.020
 44.360	 -0.465	  0.045
 44.364	 -0.470	  0.060
 44.368	 -0.475	  0.075
 44.372	 -0.480	  0.085
 44.376	 -0.485	  0.095
 44.380	 -0.490	  0.095
 44.384	 -0.495	  0.095
 44.388	 -0.495	  0.100
 44.392	 -0.490	  0.105
 44.396	 -0.485	  0.115
 44.400	 -0.485	  0.125
 44.404	 -0.485	  0.130
 44.408	 -0.480	  0.130
 44.412	 -0.475	  0.125
 44.416	 -0.470	  0.125
 44.420	 -0.465	  0.140
 44.424	 -0.465	  0.145
 44.428	 -0.465	  0.150
 44.432	 -0.465	  0.160
 44.436	 -0.470	  0.170
 44.440	 -0.475	  0.175
 44.444	 -0.475	  0.175
 44.448	 -0.475	  0.175
 44.452	 -0.480	  0.180
 44.456	 -0.485	  0.200
 44.460	 -0.485	  0.225
 44.464	 -0.485	  0.240
 44.468	 -0.490	  0.250
 44.472	 -0.500	  0.265
 44.476	 -0.510	  0.280
 44.480	 -0.530	  0.295
 44.484	 -0.550	  0.310
 44.488	 -0.565	  0.335
 44.492	 -0.580	  0.360
 44.496	 -0.610	  0.370
 44.500	 -0.645	  0.385
 44.504	 -0.670	  0.400
 44.508	 -0.695	  0.415
 44.512	 -0.720	  0.430
 44.516	 -0.745	  0.445
 44.520	 -0.765	  0.455
 44.524	 -0.785	  0.460
 44.528	 -0.795	  0.455
 44.532	 -0.800	  0.450
 44.536	 -0.770	  0.430
 44.540	 -0.740	  0.405
 44.544	 -0.695	  0.380
 44.548	 -0.645	  0.350
 44.552	 -0.585	  0.310
 44.556	 -0.520	  0.265
 44.560	 -0.455	  0.215
 44.564	 -0.390	  0.165
 44.568	 -0.335	  0.125
 44.572	 -0.280	  0.090
 44.576	 -0.230	  0.060
 44.580	 -0.185	  0.025
 44.584	 -0.150	 -0.005
 44.588	 -0.120	 -0.035
 44.592	 -0.095	 -0.060
 44.596	 -0.075	 -0.080
 44.600	 -0.065	 -0.090
 44.604	 -0.060	 -0.095
 44.608	 -0.055	 -0.095
 44.612	 -0.045	 -0.100
 44.616	 -0.035	 -0.110
 44.620	 -0.035	 -0.115
 44.624	 -0.035	 -0.115
 44.628	 -0.035	 -0.115
 44.632	 -0.035	 -0.120
 44.636	 -0.035	 -0.120
 44.640	 -0.035	 -0.115
 44.644	 -0.035	 -0.115
 44.648	 -0.035	 -0.115
 44.652	 -0.035	 -0.115
 44.656	 -0.040	 -0.120
 44.660	 -0.040	 -0.120
 44.664	 -0.035	 -0.115
 44.668	 -0.035	 -0.115
 44.672	 -0.030	 -0.110
 44.676	 -0.020	 -0.105
 44.680	 -0.015	 -0.105
 44.684	 -0.015	 -0.115
 44.688	 -0.010	 -0.125
 44.692	  0.000	 -0.125
 44.696	  0.005	 -0.120
 44.700	  0.005	 -0.115
 44.704	  0.005	 -0.115
 44.708	  0.015	 -0.115
 44.712	  0.030	 -0.110
 44.716	  0.050	 -0.105
 44.720	  0.070	 -0.100
 44.724	  0.095	 -0.095
 44.728	  0.115	 -0.085
 44.732	  0.115	 -0.070
 44.736	  0.135	 -0.055
 44.740	  0.185	 -0.035
 44.744	  0.245	 -0.020
 44.748	  0.310	 -0.015
 44.752	  0.350	 -0.020
 44.756	  0.365	 -0.035
 44.760	  0.390	 -0.060
 44.764	  0.430	 -0.090
 44.768	  0.450	 -0.105
 44.772	  0.465	 -0.105
 44.776	  0.420	 -0.110
 44.780	  0.340	 -0.130
 44.784	  0.285	 -0.135
 44.788	  0.245	 -0.140
 44.792	  0.180	 -0.145
 44.796	  0.110	 -0.145
 44.800	  0.055	 -0.155
 44.804	  0.010	 -0.170
 44.808	 -0.010	 -0.180
 44.812	 -0.030	 -0.190
 44.816	 -0.040	 -0.195
 44.820	 -0.050	 -0.195
 44.824	 -0.065	 -0.190
 44.828	 -0.080	 -0.185
 44.832	 -0.085	 -0.190
 44.836	 -0.095	 -0.205
 44.840	 -0.110	 -0.210
 44.844	 -0.120	 -0.210
 44.848	 -0.115	 -0.205
 44.852	 -0.115	 -0.205
 44.856	 -0.120	 -0.205
 44.860	 -0.125	 -0.200
 44.864	 -0.125	 -0.195
 44.868	 -0.125	 -0.195
 44.872	 -0.125	 -0.205
 44.876	 -0.120	 -0.210
 44.880	 -0.115	 -0.200
 44.884	 -0.115	 -0.180
 44.888	 -0.130	 -0.145
 44.892	 -0.145	 -0.110
 44.896	 -0.150	 -0.065
 44.900	 -0.070	 -0.055
 44.904	  0.140	 -0.085
 44.908	  0.470	 -0.130
 44.912	  0.945	 -0.190
 44.916	  1.450	 -0.310
 44.920	  1.975	 -0.495
 44.924	  2.365	 -0.780
 44.928	  2.640	 -1.155
 44.932	  2.750	 -1.530
 44.936	  2.745	 -1.900
 44.940	  2.735	 -2.105
 44.944	  2.725	 -2.210
 44.948	  2.370	 -2.245
 44.952	  1.850	 -2.250
 44.956	  1.115	 -1.895
 44.960	  0.305	 -1.400
 44.964	  0.005	 -0.950
 44.968	 -0.135	 -0.515
 44.972	 -0.205	 -0.305
 44.976	 -0.255	 -0.145
 44.980	 -0.300	 -0.080
 44.984	 -0.350	 -0.025
 44.988	 -0.385	  0.000
 44.992	 -0.420	  0.020
 44.996	 -0.440	  0.035
 45.000	 -0.465	  0.055
 45.004	 -0.470	  0.065
 45.008	 -0.475	  0.075
 45.012	 -0.475	  0.080
 45.016	 -0.475	  0.085
 45.020	 -0.480	  0.090
 45.024	 -0.485	  0.095
 45.028	 -0.485	  0.100
 45.032	 -0.480	  0.105
 45.036	 -0.470	  0.105
 45.040	 -0.465	  0.105
 45.044	 -0.465	  0.110
 45.048	 -0.460	  0.115
 45.052	 -0.455	  0.125
 45.056	 -0.455	  0.135
 45.060	 -0.455	  0.135
 45.064	 -0.450	  0.135
 45.068	 -0.440	  0.140
 45.072	 -0.435	  0.145
 45.076	 -0.435	  0.150
 45.080	 -0.435	  0.160
 45.084	 -0.435	  0.175
 45.088	 -0.435	  0.185
 45.092	 -0.440	  0.190
 45.096	 -0.445	  0.195
 45.100	 -0.450	  0.200
 45.104	 -0.460	  0.210
 45.108	 -0.470	  0.220
 45.112	 -0.475	  0.240
 45.116	 -0.475	  0.265
 45.120	 -0.485	  0.285
 45.124	 -0.505	  0.300
 45.128	 -0.530	  0.310
 45.132	 -0.550	  0.320
 45.136	 -0.570	  0.340
 45.140	 -0.590	  0.360
 45.144	 -0.620	  0.375
 45.148	 -0.650	  0.390
 45.152	 -0.675	  0.400
 45.156	 -0.700	  0.410
 45.160	 -0.720	  0.410
 45.164	 -0.740	  0.405
 45.168	 -0.755	  0.405
 45.172	 -0.760	  0.400
 45.176	 -0.740	  0.390
 45.180	 -0.720	  0.380
 45.184	 -0.680	  0.350
 45.188	 -0.635	  0.320
 45.192	 -0.575	  0.280
 45.196	 -0.515	  0.245
 45.200	 -0.455	  0.205
 45.204	 -0.400	  0.165
 45.208	 -0.345	  0.130
 45.212	 -0.290	  0.095
 45.216	 -0.245	  0.055
 45.220	 -0.200	  0.025
 45.224	 -0.165	 -0.005
 45.228	 -0.140	 -0.030
 45.232	 -0.130	 -0.045
 45.236	 -0.120	 -0.055
 45.240	 -0.115	 -0.060
 45.244	 -0.115	 -0.065
 45.248	 -0.115	 -0.075
 45.252	 -0.115	 -0.085
 45.256	 -0.115	 -0.085
 45.260	 -0.115	 -0.080
 45.264	 -0.115	 -0.075
 45.268	 -0.115	 -0.075
 45.272	 -0.120	 -0.075
 45.276	 -0.115	 -0.075
 45.280	 -0.105	 -0.080
 45.284	 -0.095	 -0.085
 45.288	 -0.085	 -0.085
 45.292	 -0.085	 -0.085
 45.296	 -0.085	 -0.085
 45.300	 -0.075	 -0.085
 45.304	 -0.065	 -0.085
 45.308	 -0.055	 -0.090
 45.312	 -0.045	 -0.100
 45.316	 -0.040	 -0.105
 45.320	 -0.035	 -0.105
 45.324	 -0.025	 -0.105
 45.328	 -0.015	 -0.105
 45.332	 -0.015	 -0.105
 45.336	 -0.010	 -0.105
 45.340	 -0.005	 -0.105
 45.344	  0.000	 -0.105
 45.348	  0.000	 -0.110
 45.352	  0.000	 -0.110
 45.356	 -0.005	 -0.105
 45.360	 -0.010	 -0.105
 45.364	 -0.005	 -0.110
 45.368	 -0.005	 -0.115
 45.372	 -0.010	 -0.120
 45.376	 -0.010	 -0.125
 45.380	  0.000	 -0.125
 45.384	  0.010	 -0.120
 45.388	  0.030	 -0.110
 45.392	  0.050	 -0.095
 45.396	  0.065	 -0.080
 45.400	  0.075	 -0.070
 45.404	  0.075	 -0.060
 45.408	  0.095	 -0.040
 45.412	  0.155	 -0.015
 45.416	  0.220	  0.000
 45.420	  0.295	  0.010
 45.424	  0.335	  0.000
 45.428	  0.335	 -0.015
 45.432	  0.365	 -0.045
 45.436	  0.420	 -0.080
 45.440	  0.420	 -0.095
 45.444	  0.385	 -0.095
 45.448	  0.330	 -0.095
 45.452	  0.260	 -0.100
 45.456	  0.210	 -0.105
 45.460	  0.165	 -0.105
 45.464	  0.110	 -0.115
 45.468	  0.055	 -0.130
 45.472	  0.010	 -0.145
 45.476	 -0.025	 -0.160
 45.480	 -0.040	 -0.165
 45.484	 -0.050	 -0.165
 45.488	 -0.060	 -0.165
 45.492	 -0.070	 -0.170
 45.496	 -0.085	 -0.175
 45.500	 -0.105	 -0.175
 45.504	 -0.110	 -0.175
 45.508	 -0.115	 -0.170
 45.512	 -0.125	 -0.165
 45.516	 -0.135	 -0.165
 45.520	 -0.135	 -0.165
 45.524	 -0.135	 -0.165
 45.528	 -0.140	 -0.170
 45.532	 -0.140	 -0.175
 45.536	 -0.130	 -0.175
 45.540	 -0.120	 -0.175
 45.544	 -0.115	 -0.175
 45.548	 -0.115	 -0.165
 45.552	 -0.125	 -0.145
 45.556	 -0.145	 -0.115
 45.560	 -0.180	 -0.060
 45.564	 -0.150	 -0.030
 45.568	 -0.005	 -0.045
 45.572	  0.255	 -0.080
 45.576	  0.685	 -0.140
 45.580	  1.165	 -0.245
 45.584	  1.700	 -0.405
 45.588	  2.175	 -0.660
 45.592	  2.590	 -1.000
 45.596	  2.765	 -1.395
 45.600	  2.755	 -1.825
 45.604	  2.745	 -2.055
 45.608	  2.730	 -2.155
 45.612	  2.495	 -2.200
 45.616	  2.145	 -2.210
 45.620	  1.365	 -1.865
 45.624	  0.405	 -1.365
 45.628	  0.050	 -0.930
 45.632	 -0.090	 -0.510
 45.636	 -0.165	 -0.290
 45.640	 -0.225	 -0.120
 45.644	 -0.280	 -0.055
 45.648	 -0.335	 -0.010
 45.652	 -0.385	  0.015
 45.656	 -0.430	  0.040
 45.660	 -0.445	  0.055
 45.664	 -0.460	  0.070
 45.668	 -0.470	  0.085
 45.672	 -0.475	  0.095
 45.676	 -0.480	  0.105
 45.680	 -0.485	  0.115
 45.684	 -0.490	  0.115
 45.688	 -0.490	  0.115
 45.692	 -0.485	  0.120
 45.696	 -0.485	  0.125
 45.700	 -0.485	  0.135
 45.704	 -0.485	  0.145
 45.708	 -0.485	  0.150
 45.712	 -0.485	  0.155
 45.716	 -0.490	  0.155
 45.720	 -0.490	  0.155
 45.724	 -0.485	  0.160
 45.728	 -0.485	  0.165
 45.732	 -0.485	  0.175
 45.736	 -0.480	  0.185
 45.740	 -0.475	  0.190
 45.744	 -0.475	  0.195
 45.748	 -0.480	  0.200
 45.752	 -0.485	  0.210
 45.756	 -0.490	  0.220
 45.760	 -0.495	  0.230
 45.764	 -0.495	  0.240
 45.768	 -0.500	  0.250
 45.772	 -0.510	  0.260
 45.776	 -0.525	  0.270
 45.780	 -0.545	  0.280
 45.784	 -0.565	  0.300
 45.788	 -0.585	  0.325
 45.792	 -0.620	  0.345
 45.796	 -0.655	  0.360
 45.800	 -0.685	  0.380
 45.804	 -0.710	  0.400
 45.808	 -0.745	  0.420
 45.812	 -0.785	  0.440
 45.816	 -0.815	  0.445
 45.820	 -0.840	  0.450
 45.824	 -0.865	  0.455
 45.828	 -0.890	  0.460
 45.832	 -0.900	  0.465
 45.836	 -0.910	  0.460
 45.840	 -0.900	  0.445
 45.844	 -0.890	  0.430
 45.848	 -0.850	  0.405
 45.852	 -0.805	  0.380
 45.856	 -0.755	  0.345
 45.860	 -0.700	  0.305
 45.864	 -0.620	  0.260
 45.868	 -0.540	  0.215
 45.872	 -0.470	  0.165
 45.876	 -0.405	  0.125
 45.880	 -0.335	  0.095
 45.884	 -0.265	  0.060
 45.888	 -0.205	  0.025
 45.892	 -0.145	  0.000
 45.896	 -0.095	 -0.005
 45.900	 -0.030	  0.000
 45.904	  0.055	  0.025
 45.908	  0.140	  0.045
 45.912	  0.220	  0.055
 45.916	  0.275	  0.065
 45.920	  0.310	  0.065
 45.924	  0.360	  0.060
 45.928	  0.425	  0.055
 45.932	  0.430	  0.055
 45.936	  0.395	  0.055
 45.940	  0.350	  0.055
 45.944	  0.300	  0.060
 45.948	  0.250	  0.040
 45.952	  0.195	  0.005
 45.956	  0.135	 -0.015
 45.960	  0.070	 -0.030
 45.964	  0.015	 -0.040
 45.968	 -0.035	 -0.050
 45.972	 -0.060	 -0.060
 45.976	 -0.080	 -0.070
 45.980	 -0.090	 -0.075
 45.984	 -0.100	 -0.080
 45.988	 -0.105	 -0.085
 45.992	 -0.110	 -0.090
 45.996	 -0.115	 -0.100
 46.000	 -0.125	 -0.115
 46.004	 -0.130	 -0.120
 46.008	 -0.130	 -0.125
 46.012	 -0.125	 -0.125
 46.016	 -0.125	 -0.125
 46.020	 -0.130	 -0.130
 46.024	 -0.135	 -0.135
 46.028	 -0.140	 -0.135
 46.032	 -0.140	 -0.135
 46.036	 -0.135	 -0.140
 46.040	 -0.135	 -0.145
 46.044	 -0.140	 -0.145
 46.048	 -0.140	 -0.145
 46.052	 -0.130	 -0.145
 46.056	 -0.125	 -0.145
 46.060	 -0.130	 -0.150
 46.064	 -0.140	 -0.140
 46.068	 -0.170	 -0.110
 46.072	 -0.190	 -0.075
 46.076	 -0.210	 -0.040
 46.080	 -0.095	 -0.030
 46.084	  0.170	 -0.055
 46.088	  0.575	 -0.095
 46.092	  1.110	 -0.155
 46.096	  1.650	 -0.290
 46.100	  2.190	 -0.480
 46.104	  2.510	 -0.795
 46.108	  2.690	 -1.195
 46.112	  2.745	 -1.570
 46.116	  2.735	 -1.935
 46.120	  2.735	 -2.090
 46.124	  2.735	 -2.155
 46.128	  1.965	 -2.090
 46.132	  0.940	 -1.985
 46.136	  0.355	 -1.510
 46.140	 -0.110	 -0.940
 46.144	 -0.215	 -0.585
 46.148	 -0.260	 -0.265
 46.152	 -0.285	 -0.155
 46.156	 -0.310	 -0.070
 46.160	 -0.355	 -0.035
 46.164	 -0.400	 -0.005
 46.168	 -0.430	  0.015
 46.172	 -0.455	  0.035
 46.176	 -0.465	  0.050
 46.180	 -0.475	  0.065
 46.184	 -0.485	  0.075
 46.188	 -0.495	  0.085
 46.192	 -0.495	  0.085
 46.196	 -0.495	  0.085
 46.200	 -0.495	  0.090
 46.204	 -0.495	  0.095
 46.208	 -0.495	  0.100
 46.212	 -0.495	  0.105
 46.216	 -0.495	  0.110
 46.220	 -0.490	  0.115
 46.224	 -0.485	  0.120
 46.228	 -0.485	  0.125
 46.232	 -0.485	  0.125
 46.236	 -0.480	  0.125
 46.240	 -0.475	  0.125
 46.244	 -0.475	  0.125
 46.248	 -0.475	  0.135
 46.252	 -0.470	  0.150
 46.256	 -0.465	  0.160
 46.260	 -0.460	  0.170
 46.264	 -0.455	  0.180
 46.268	 -0.455	  0.190
 46.272	 -0.460	  0.200
 46.276	 -0.470	  0.210
 46.280	 -0.490	  0.220
 46.284	 -0.495	  0.235
 46.288	 -0.500	  0.250
 46.292	 -0.520	  0.265
 46.296	 -0.540	  0.280
 46.300	 -0.555	  0.300
 46.304	 -0.570	  0.320
 46.308	 -0.590	  0.325
 46.312	 -0.610	  0.330
 46.316	 -0.630	  0.340
 46.320	 -0.650	  0.350
 46.324	 -0.665	  0.360
 46.328	 -0.680	  0.370
 46.332	 -0.685	  0.370
 46.336	 -0.690	  0.360
 46.340	 -0.685	  0.350
 46.344	 -0.680	  0.340
 46.348	 -0.645	  0.320
 46.352	 -0.605	  0.300
 46.356	 -0.555	  0.280
 46.360	 -0.505	  0.260
 46.364	 -0.455	  0.225
 46.368	 -0.405	  0.195
 46.372	 -0.365	  0.155
 46.376	 -0.325	  0.115
 46.380	 -0.290	  0.090
 46.384	 -0.255	  0.065
 46.388	 -0.230	  0.040
 46.392	 -0.205	  0.020
 46.396	 -0.185	  0.010
 46.400	 -0.170	  0.000
 46.404	 -0.165	 -0.015
 46.408	 -0.160	 -0.025
 46.412	 -0.150	 -0.035
 46.416	 -0.145	 -0.045
 46.420	 -0.145	 -0.045
 46.424	 -0.140	 -0.045
 46.428	 -0.135	 -0.045
 46.432	 -0.130	 -0.050
 46.436	 -0.125	 -0.060
 46.440	 -0.120	 -0.065
 46.444	 -0.115	 -0.065
 46.448	 -0.110	 -0.065
 46.452	 -0.105	 -0.065
 46.456	 -0.100	 -0.065
 46.460	 -0.095	 -0.070
 46.464	 -0.095	 -0.075
 46.468	 -0.095	 -0.080
 46.472	 -0.090	 -0.080
 46.476	 -0.085	 -0.075
 46.480	 -0.085	 -0.075
 46.484	 -0.090	 -0.080
 46.488	 -0.095	 -0.085
 46.492	 -0.095	 -0.085
 46.496	 -0.095	 -0.085
 46.500	 -0.095	 -0.085
 46.504	 -0.095	 -0.085
 46.508	 -0.095	 -0.085
 46.512	 -0.095	 -0.090
 46.516	 -0.095	 -0.095
 46.520	 -0.100	 -0.095
 46.524	 -0.105	 -0.095
 46.528	 -0.105	 -0.100
 46.532	 -0.105	 -0.100
 46.536	 -0.105	 -0.095
 46.540	 -0.105	 -0.095
 46.544	 -0.105	 -0.095
 46.548	 -0.105	 -0.095
 46.552	 -0.110	 -0.095
 46.556	 -0.115	 -0.095
 46.560	 -0.120	 -0.100
 46.564	 -0.120	 -0.100
 46.568	 -0.115	 -0.095
 46.572	 -0.115	 -0.095
 46.576	 -0.115	 -0.100
 46.580	 -0.115	 -0.100
 46.584	 -0.120	 -0.095
 46.588	 -0.125	 -0.095
 46.592	 -0.130	 -0.100
 46.596	 -0.125	 -0.105
 46.600	 -0.115	 -0.105
 46.604	 -0.120	 -0.105
 46.608	 -0.130	 -0.105
 46.612	 -0.125	 -0.100
 46.616	 -0.115	 -0.095
 46.620	 -0.115	 -0.095
 46.624	 -0.120	 -0.100
 46.628	 -0.115	 -0.105
 46.632	 -0.105	 -0.105
 46.636	 -0.080	 -0.095
 46.640	 -0.045	 -0.085
 46.644	 -0.030	 -0.070
 46.648	 -0.015	 -0.055
 46.652	 -0.015	 -0.040
 46.656	 -0.020	 -0.025
 46.660	  0.025	 -0.010
 46.664	  0.080	  0.000
 46.668	  0.150	  0.020
 46.672	  0.215	  0.030
 46.676	  0.235	  0.010
 46.680	  0.255	 -0.005
 46.684	  0.315	 -0.035
 46.688	  0.360	 -0.065
 46.692	  0.320	 -0.070
 46.696	  0.285	 -0.075
 46.700	  0.225	 -0.080
 46.704	  0.170	 -0.085
 46.708	  0.120	 -0.090
 46.712	  0.070	 -0.095
 46.716	  0.020	 -0.095
 46.720	 -0.025	 -0.095
 46.724	 -0.065	 -0.105
 46.728	 -0.100	 -0.115
 46.732	 -0.115	 -0.125
 46.736	 -0.125	 -0.135
 46.740	 -0.130	 -0.135
 46.744	 -0.135	 -0.135
 46.748	 -0.145	 -0.140
 46.752	 -0.155	 -0.145
 46.756	 -0.155	 -0.145
 46.760	 -0.155	 -0.145
 46.764	 -0.160	 -0.145
 46.768	 -0.165	 -0.140
 46.772	 -0.170	 -0.135
 46.776	 -0.170	 -0.135
 46.780	 -0.165	 -0.135
 46.784	 -0.160	 -0.135
 46.788	 -0.155	 -0.140
 46.792	 -0.155	 -0.135
 46.796	 -0.160	 -0.125
 46.800	 -0.185	 -0.085
 46.804	 -0.215	 -0.030
 46.808	 -0.190	 -0.015
 46.812	 -0.150	 -0.005
 46.816	  0.155	 -0.035
 46.820	  0.495	 -0.070
 46.824	  1.025	 -0.205
 46.828	  1.565	 -0.350
 46.832	  2.090	 -0.625
 46.836	  2.605	 -0.910
 46.840	  2.675	 -1.320
 46.844	  2.740	 -1.715
 46.848	  2.735	 -1.930
 46.852	  2.735	 -2.130
 46.856	  2.745	 -2.175
 46.860	  2.600	 -2.185
 46.864	  1.630	 -2.000
 46.868	  0.755	 -1.740
 46.872	  0.260	 -1.200
 46.876	 -0.125	 -0.715
 46.880	 -0.205	 -0.400
 46.884	 -0.275	 -0.155
 46.888	 -0.315	 -0.055
 46.892	 -0.360	  0.015
 46.896	 -0.420	  0.045
 46.900	 -0.465	  0.075
 46.904	 -0.495	  0.100
 46.908	 -0.515	  0.120
 46.912	 -0.525	  0.135
 46.916	 -0.535	  0.145
 46.920	 -0.540	  0.160
 46.924	 -0.545	  0.165
 46.928	 -0.545	  0.170
 46.932	 -0.545	  0.175
 46.936	 -0.550	  0.180
 46.940	 -0.555	  0.185
 46.944	 -0.555	  0.185
 46.948	 -0.545	  0.190
 46.952	 -0.535	  0.200
 46.956	 -0.535	  0.210
 46.960	 -0.540	  0.220
 46.964	 -0.550	  0.225
 46.968	 -0.560	  0.225
 46.972	 -0.550	  0.230
 46.976	 -0.535	  0.240
 46.980	 -0.535	  0.245
 46.984	 -0.540	  0.250
 46.988	 -0.540	  0.255
 46.992	 -0.535	  0.260
 46.996	 -0.540	  0.265
 47.000	 -0.555	  0.275
 47.004	 -0.555	  0.285
 47.008	 -0.555	  0.295
 47.012	 -0.560	  0.310
 47.016	 -0.565	  0.325
 47.020	 -0.580	  0.335
 47.024	 -0.595	  0.345
 47.028	 -0.610	  0.360
 47.032	 -0.625	  0.375
 47.036	 -0.645	  0.395
 47.040	 -0.670	  0.420
 47.044	 -0.700	  0.445
 47.048	 -0.730	  0.465
 47.052	 -0.755	  0.480
 47.056	 -0.785	  0.495
 47.060	 -0.820	  0.505
 47.064	 -0.850	  0.515
 47.068	 -0.870	  0.525
 47.072	 -0.890	  0.535
 47.076	 -0.905	  0.545
 47.080	 -0.910	  0.550
 47.084	 -0.905	  0.535
 47.088	 -0.890	  0.520
 47.092	 -0.870	  0.495
 47.096	 -0.840	  0.465
 47.100	 -0.805	  0.435
 47.104	 -0.755	  0.405
 47.108	 -0.695	  0.375
 47.112	 -0.630	  0.330
 47.116	 -0.560	  0.285
 47.120	 -0.500	  0.245
 47.124	 -0.440	  0.205
 47.128	 -0.385	  0.160
 47.132	 -0.335	  0.120
 47.136	 -0.280	  0.085
 47.140	 -0.230	  0.050
 47.144	 -0.190	  0.025
 47.148	 -0.155	  0.005
 47.152	 -0.135	 -0.010
 47.156	 -0.115	 -0.030
 47.160	 -0.100	 -0.035
 47.164	 -0.085	 -0.040
 47.168	 -0.075	 -0.050
 47.172	 -0.070	 -0.055
 47.176	 -0.065	 -0.060
 47.180	 -0.065	 -0.065
 47.184	 -0.065	 -0.070
 47.188	 -0.065	 -0.070
 47.192	 -0.065	 -0.065
 47.196	 -0.060	 -0.065
 47.200	 -0.055	 -0.065
 47.204	 -0.055	 -0.065
 47.208	 -0.055	 -0.065
 47.212	 -0.050	 -0.065
 47.216	 -0.045	 -0.065
 47.220	 -0.045	 -0.065
 47.224	 -0.045	 -0.070
 47.228	 -0.040	 -0.070
 47.232	 -0.030	 -0.065
 47.236	 -0.025	 -0.065
 47.240	 -0.025	 -0.065
 47.244	 -0.015	 -0.065
 47.248	  0.000	 -0.070
 47.252	  0.005	 -0.075
 47.256	  0.010	 -0.075
 47.260	  0.020	 -0.075
 47.264	  0.030	 -0.075
 47.268	  0.045	 -0.065
 47.272	  0.065	 -0.055
 47.276	  0.080	 -0.055
 47.280	  0.100	 -0.055
 47.284	  0.110	 -0.050
 47.288	  0.120	 -0.045
 47.292	  0.155	 -0.025
 47.296	  0.195	  0.000
 47.300	  0.245	  0.010
 47.304	  0.305	  0.020
 47.308	  0.340	  0.010
 47.312	  0.380	  0.000
 47.316	  0.410	 -0.030
 47.320	  0.440	 -0.060
 47.324	  0.465	 -0.065
 47.328	  0.490	 -0.070
 47.332	  0.415	 -0.080
 47.336	  0.330	 -0.095
 47.340	  0.280	 -0.095
 47.344	  0.230	 -0.095
 47.348	  0.160	 -0.100
 47.352	  0.095	 -0.105
 47.356	  0.050	 -0.120
 47.360	  0.010	 -0.135
 47.364	 -0.010	 -0.140
 47.368	 -0.035	 -0.145
 47.372	 -0.050	 -0.150
 47.376	 -0.065	 -0.155
 47.380	 -0.075	 -0.160
 47.384	 -0.085	 -0.165
 47.388	 -0.095	 -0.165
 47.392	 -0.105	 -0.165
 47.396	 -0.115	 -0.165
 47.400	 -0.125	 -0.165
 47.404	 -0.135	 -0.165
 47.408	 -0.145	 -0.165
 47.412	 -0.145	 -0.165
 47.416	 -0.145	 -0.165
 47.420	 -0.150	 -0.165
 47.424	 -0.150	 -0.160
 47.428	 -0.145	 -0.155
 47.432	 -0.140	 -0.155
 47.436	 -0.135	 -0.160
 47.440	 -0.140	 -0.155
 47.444	 -0.150	 -0.140
 47.448	 -0.165	 -0.095
 47.452	 -0.185	 -0.040
 47.456	 -0.065	 -0.035
 47.460	  0.110	 -0.050
 47.464	  0.505	 -0.090
 47.468	  0.965	 -0.145
 47.472	  1.495	 -0.305
 47.476	  2.035	 -0.495
 47.480	  2.405	 -0.815
 47.484	  2.740	 -1.160
 47.488	  2.765	 -1.555
 47.492	  2.755	 -1.955
 47.496	  2.745	 -2.075
 47.500	  2.735	 -2.185
 47.504	  2.325	 -2.200
 47.508	  1.890	 -2.190
 47.512	  1.005	 -1.725
 47.516	  0.185	 -1.260
 47.520	  0.010	 -0.815
 47.524	 -0.140	 -0.410
 47.528	 -0.190	 -0.245
 47.532	 -0.240	 -0.105
 47.536	 -0.295	 -0.060
 47.540	 -0.345	 -0.015
 47.544	 -0.390	  0.005
 47.548	 -0.425	  0.030
 47.552	 -0.435	  0.055
 47.556	 -0.445	  0.075
 47.560	 -0.450	  0.080
 47.564	 -0.455	  0.085
 47.568	 -0.460	  0.085
 47.572	 -0.465	  0.085
 47.576	 -0.465	  0.095
 47.580	 -0.465	  0.105
 47.584	 -0.465	  0.110
 47.588	 -0.460	  0.120
 47.592	 -0.455	  0.130
 47.596	 -0.450	  0.130
 47.600	 -0.445	  0.125
 47.604	 -0.445	  0.125
 47.608	 -0.445	  0.125
 47.612	 -0.440	  0.130
 47.616	 -0.435	  0.140
 47.620	 -0.435	  0.145
 47.624	 -0.435	  0.150
 47.628	 -0.430	  0.150
 47.632	 -0.425	  0.145
 47.636	 -0.425	  0.150
 47.640	 -0.430	  0.160
 47.644	 -0.435	  0.180
 47.648	 -0.435	  0.200
 47.652	 -0.430	  0.205
 47.656	 -0.425	  0.210
 47.660	 -0.440	  0.215
 47.664	 -0.460	  0.220
 47.668	 -0.475	  0.245
 47.672	 -0.485	  0.265
 47.676	 -0.500	  0.285
 47.680	 -0.515	  0.305
 47.684	 -0.540	  0.315
 47.688	 -0.565	  0.325
 47.692	 -0.590	  0.340
 47.696	 -0.620	  0.355
 47.700	 -0.650	  0.370
 47.704	 -0.680	  0.385
 47.708	 -0.715	  0.400
 47.712	 -0.750	  0.415
 47.716	 -0.770	  0.415
 47.720	 -0.785	  0.410
 47.724	 -0.790	  0.390
 47.728	 -0.785	  0.380
 47.732	 -0.770	  0.370
 47.736	 -0.740	  0.350
 47.740	 -0.690	  0.325
 47.744	 -0.630	  0.295
 47.748	 -0.565	  0.255
 47.752	 -0.500	  0.210
 47.756	 -0.440	  0.165
 47.760	 -0.380	  0.130
 47.764	 -0.325	  0.105
 47.768	 -0.275	  0.075
 47.772	 -0.230	  0.045
 47.776	 -0.195	  0.015
 47.780	 -0.160	 -0.005
 47.784	 -0.140	 -0.025
 47.788	 -0.120	 -0.045
 47.792	 -0.105	 -0.055
 47.796	 -0.095	 -0.060
 47.800	 -0.095	 -0.065
 47.804	 -0.100	 -0.065
 47.808	 -0.100	 -0.065
 47.812	 -0.095	 -0.070
 47.816	 -0.095	 -0.075
 47.820	 -0.095	 -0.080
 47.824	 -0.095	 -0.080
 47.828	 -0.095	 -0.075
 47.832	 -0.095	 -0.075
 47.836	 -0.090	 -0.075
 47.840	 -0.080	 -0.075
 47.844	 -0.070	 -0.075
 47.848	 -0.065	 -0.075
 47.852	 -0.065	 -0.075
 47.856	 -0.065	 -0.080
 47.860	 -0.060	 -0.085
 47.864	 -0.045	 -0.085
 47.868	 -0.035	 -0.085
 47.872	 -0.035	 -0.090
 47.876	 -0.030	 -0.095
 47.880	 -0.015	 -0.100
 47.884	 -0.005	 -0.100
 47.888	 -0.005	 -0.095
 47.892	 -0.005	 -0.095
 47.896	 -0.005	 -0.100
 47.900	 -0.005	 -0.105
 47.904	 -0.005	 -0.110
 47.908	 -0.005	 -0.115
 47.912	 -0.005	 -0.120
 47.916	  0.000	 -0.120
 47.920	  0.000	 -0.115
 47.924	  0.010	 -0.110
 47.928	  0.025	 -0.105
 47.932	  0.045	 -0.100
 47.936	  0.075	 -0.095
 47.940	  0.085	 -0.085
 47.944	  0.090	 -0.075
 47.948	  0.110	 -0.060
 47.952	  0.135	 -0.040
 47.956	  0.185	 -0.020
 47.960	  0.250	 -0.005
 47.964	  0.295	 -0.010
 47.968	  0.335	 -0.020
 47.972	  0.370	 -0.050
 47.976	  0.405	 -0.085
 47.980	  0.425	 -0.095
 47.984	  0.440	 -0.100
 47.988	  0.380	 -0.110
 47.992	  0.305	 -0.120
 47.996	  0.255	 -0.125
 48.000	  0.205	 -0.125
 48.004	  0.140	 -0.135
 48.008	  0.080	 -0.145
 48.012	  0.035	 -0.155
 48.016	 -0.005	 -0.165
 48.020	 -0.015	 -0.165
 48.024	 -0.025	 -0.165
 48.028	 -0.045	 -0.175
 48.032	 -0.065	 -0.185
 48.036	 -0.075	 -0.185
 48.040	 -0.085	 -0.185
 48.044	 -0.095	 -0.185
 48.048	 -0.105	 -0.185
 48.052	 -0.105	 -0.185
 48.056	 -0.105	 -0.185
 48.060	 -0.115	 -0.185
 48.064	 -0.120	 -0.185
 48.068	 -0.115	 -0.190
 48.072	 -0.110	 -0.190
 48.076	 -0.105	 -0.180
 48.080	 -0.105	 -0.175
 48.084	 -0.105	 -0.175
 48.088	 -0.105	 -0.175
 48.092	 -0.105	 -0.175
 48.096	 -0.120	 -0.140
 48.100	 -0.150	 -0.085
 48.104	 -0.120	 -0.065
 48.108	 -0.045	 -0.065
 48.112	  0.185	 -0.085
 48.116	  0.505	 -0.115
 48.120	  0.970	 -0.205
 48.124	  1.490	 -0.325
 48.128	  2.020	 -0.550
 48.132	  2.555	 -0.810
 48.136	  2.710	 -1.180
 48.140	  2.775	 -1.580
 48.144	  2.770	 -1.830
 48.148	  2.755	 -2.050
 48.152	  2.755	 -2.120
 48.156	  2.755	 -2.170
 48.160	  1.845	 -1.980
 48.164	  0.880	 -1.775
 48.168	  0.405	 -1.280
 48.172	 -0.045	 -0.785
 48.176	 -0.125	 -0.495
 48.180	 -0.205	 -0.225
 48.184	 -0.240	 -0.140
 48.188	 -0.280	 -0.060
 48.192	 -0.330	 -0.030
 48.196	 -0.375	  0.000
 48.200	 -0.395	  0.015
 48.204	 -0.415	  0.035
 48.208	 -0.435	  0.050
 48.212	 -0.455	  0.065
 48.216	 -0.465	  0.065
 48.220	 -0.470	  0.065
 48.224	 -0.465	  0.075
 48.228	 -0.465	  0.085
 48.232	 -0.470	  0.095
 48.236	 -0.470	  0.105
 48.240	 -0.460	  0.105
 48.244	 -0.455	  0.105
 48.248	 -0.460	  0.105
 48.252	 -0.460	  0.105
 48.256	 -0.455	  0.110
 48.260	 -0.450	  0.115
 48.264	 -0.445	  0.120
 48.268	 -0.445	  0.130
 48.272	 -0.445	  0.140
 48.276	 -0.445	  0.145
 48.280	 -0.450	  0.145
 48.284	 -0.455	  0.150
 48.288	 -0.455	  0.160
 48.292	 -0.460	  0.170
 48.296	 -0.470	  0.180
 48.300	 -0.470	  0.190
 48.304	 -0.465	  0.200
 48.308	 -0.475	  0.210
 48.312	 -0.490	  0.220
 48.316	 -0.500	  0.230
 48.320	 -0.510	  0.240
 48.324	 -0.520	  0.260
 48.328	 -0.530	  0.280
 48.332	 -0.560	  0.295
 48.336	 -0.595	  0.315
 48.340	 -0.625	  0.330
 48.344	 -0.655	  0.345
 48.348	 -0.695	  0.355
 48.352	 -0.735	  0.365
 48.356	 -0.765	  0.375
 48.360	 -0.800	  0.385
 48.364	 -0.835	  0.405
 48.368	 -0.870	  0.425
 48.372	 -0.895	  0.430
 48.376	 -0.910	  0.430
 48.380	 -0.905	  0.420
 48.384	 -0.900	  0.410
 48.388	 -0.890	  0.395
 48.392	 -0.870	  0.375
 48.396	 -0.825	  0.355
 48.400	 -0.780	  0.330
 48.404	 -0.715	  0.295
 48.408	 -0.655	  0.255
 48.412	 -0.585	  0.215
 48.416	 -0.520	  0.175
 48.420	 -0.445	  0.140
 48.424	 -0.385	  0.105
 48.428	 -0.325	  0.075
 48.432	 -0.265	  0.040
 48.436	 -0.205	  0.005
 48.440	 -0.165	 -0.020
 48.444	 -0.135	 -0.045
 48.448	 -0.105	 -0.065
 48.452	 -0.080	 -0.080
 48.456	 -0.060	 -0.085
 48.460	 -0.045	 -0.085
 48.464	 -0.040	 -0.090
 48.468	 -0.035	 -0.100
 48.472	 -0.035	 -0.105
 48.476	 -0.035	 -0.105
 48.480	 -0.035	 -0.105
 48.484	 -0.035	 -0.105
 48.488	 -0.035	 -0.100
 48.492	 -0.035	 -0.095
 48.496	 -0.030	 -0.095
 48.500	 -0.025	 -0.095
 48.504	 -0.030	 -0.095
 48.508	 -0.030	 -0.095
 48.512	 -0.025	 -0.095
 48.516	 -0.020	 -0.090
 48.520	 -0.015	 -0.085
 48.524	 -0.010	 -0.085
 48.528	 -0.005	 -0.090
 48.532	 -0.005	 -0.095
 48.536	 -0.005	 -0.095
 48.540	  0.000	 -0.095
 48.544	  0.005	 -0.095
 48.548	  0.015	 -0.090
 48.552	  0.020	 -0.085
 48.556	  0.025	 -0.085
 48.560	  0.030	 -0.090
 48.564	  0.040	 -0.090
 48.568	  0.060	 -0.085
 48.572	  0.080	 -0.080
 48.576	  0.100	 -0.070
 48.580	  0.120	 -0.060
 48.584	  0.135	 -0.045
 48.588	  0.160	 -0.035
 48.592	  0.190	 -0.020
 48.596	  0.235	 -0.010
 48.600	  0.300	 -0.005
 48.604	  0.345	 -0.010
 48.608	  0.390	 -0.020
 48.612	  0.425	 -0.040
 48.616	  0.455	 -0.065
 48.620	  0.470	 -0.075
 48.624	  0.480	 -0.080
 48.628	  0.425	 -0.090
 48.632	  0.350	 -0.100
 48.636	  0.290	 -0.105
 48.640	  0.240	 -0.110
 48.644	  0.170	 -0.115
 48.648	  0.090	 -0.115
 48.652	  0.045	 -0.120
 48.656	  0.005	 -0.130
 48.660	 -0.005	 -0.140
 48.664	 -0.020	 -0.150
 48.668	 -0.045	 -0.155
 48.672	 -0.065	 -0.155
 48.676	 -0.075	 -0.155
 48.680	 -0.085	 -0.155
 48.684	 -0.095	 -0.160
 48.688	 -0.105	 -0.165
 48.692	 -0.110	 -0.165
 48.696	 -0.115	 -0.165
 48.700	 -0.115	 -0.165
 48.704	 -0.115	 -0.160
 48.708	 -0.120	 -0.150
 48.712	 -0.120	 -0.145
 48.716	 -0.115	 -0.150
 48.720	 -0.115	 -0.155
 48.724	 -0.120	 -0.160
 48.728	 -0.125	 -0.155
 48.732	 -0.130	 -0.140
 48.736	 -0.145	 -0.105
 48.740	 -0.185	 -0.040
 48.744	 -0.115	 -0.015
 48.748	  0.075	 -0.045
 48.752	  0.420	 -0.095
 48.756	  0.910	 -0.160
 48.760	  1.465	 -0.295
 48.764	  2.065	 -0.485
 48.768	  2.465	 -0.795
 48.772	  2.720	 -1.190
 48.776	  2.805	 -1.550
 48.780	  2.795	 -1.885
 48.784	  2.785	 -2.045
 48.788	  2.775	 -2.120
 48.792	  2.240	 -2.100
 48.796	  1.520	 -2.045
 48.800	  0.820	 -1.635
 48.804	  0.120	 -1.130
 48.808	 -0.080	 -0.735
 48.812	 -0.190	 -0.360
 48.816	 -0.245	 -0.190
 48.820	 -0.290	 -0.055
 48.824	 -0.335	 -0.005
 48.828	 -0.380	  0.030
 48.832	 -0.415	  0.050
 48.836	 -0.455	  0.075
 48.840	 -0.465	  0.085
 48.844	 -0.475	  0.095
 48.848	 -0.480	  0.105
 48.852	 -0.485	  0.115
 48.856	 -0.485	  0.125
 48.860	 -0.485	  0.135
 48.864	 -0.485	  0.140
 48.868	 -0.485	  0.145
 48.872	 -0.485	  0.145
 48.876	 -0.485	  0.145
 48.880	 -0.485	  0.145
 48.884	 -0.480	  0.145
 48.888	 -0.475	  0.155
 48.892	 -0.475	  0.165
 48.896	 -0.475	  0.165
 48.900	 -0.475	  0.165
 48.904	 -0.475	  0.170
 48.908	 -0.470	  0.175
 48.912	 -0.465	  0.180
 48.916	 -0.465	  0.185
 48.920	 -0.465	  0.200
 48.924	 -0.465	  0.210
 48.928	 -0.465	  0.220
 48.932	 -0.465	  0.225
 48.936	 -0.470	  0.230
 48.940	 -0.475	  0.240
 48.944	 -0.475	  0.250
 48.948	 -0.480	  0.265
 48.952	 -0.490	  0.280
 48.956	 -0.500	  0.295
 48.960	 -0.510	  0.310
 48.964	 -0.530	  0.325
 48.968	 -0.550	  0.340
 48.972	 -0.575	  0.355
 48.976	 -0.600	  0.370
 48.980	 -0.635	  0.380
 48.984	 -0.670	  0.390
 48.988	 -0.695	  0.405
 48.992	 -0.720	  0.420
 48.996	 -0.750	  0.430
 49.000	 -0.785	  0.445
 49.004	 -0.805	  0.445
 49.008	 -0.825	  0.440
 49.012	 -0.825	  0.435
 49.016	 -0.820	  0.430
 49.020	 -0.800	  0.410
 49.024	 -0.775	  0.390
 49.028	 -0.730	  0.365
 49.032	 -0.680	  0.335
 49.036	 -0.615	  0.295
 49.040	 -0.550	  0.255
 49.044	 -0.485	  0.210
 49.048	 -0.425	  0.175
 49.052	 -0.365	  0.145
 49.056	 -0.305	  0.110
 49.060	 -0.260	  0.075
 49.064	 -0.220	  0.045
 49.068	 -0.190	  0.015
 49.072	 -0.165	  0.000
 49.076	 -0.145	 -0.015
 49.080	 -0.135	 -0.025
 49.084	 -0.135	 -0.030
 49.088	 -0.135	 -0.035
 49.092	 -0.135	 -0.040
 49.096	 -0.130	 -0.045
 49.100	 -0.125	 -0.050
 49.104	 -0.125	 -0.050
 49.108	 -0.130	 -0.045
 49.112	 -0.130	 -0.045
 49.116	 -0.125	 -0.045
 49.120	 -0.125	 -0.045
 49.124	 -0.125	 -0.050
 49.128	 -0.120	 -0.050
 49.132	 -0.115	 -0.045
 49.136	 -0.105	 -0.045
 49.140	 -0.095	 -0.045
 49.144	 -0.095	 -0.045
 49.148	 -0.095	 -0.045
 49.152	 -0.085	 -0.045
 49.156	 -0.075	 -0.050
 49.160	 -0.070	 -0.055
 49.164	 -0.065	 -0.055
 49.168	 -0.065	 -0.055
 49.172	 -0.060	 -0.055
 49.176	 -0.050	 -0.055
 49.180	 -0.045	 -0.055
 49.184	 -0.045	 -0.055
 49.188	 -0.040	 -0.055
 49.192	 -0.035	 -0.065
 49.196	 -0.030	 -0.075
 49.200	 -0.020	 -0.075
 49.204	 -0.015	 -0.075
 49.208	 -0.020	 -0.075
 49.212	 -0.020	 -0.075
 49.216	 -0.010	 -0.075
 49.220	  0.000	 -0.070
 49.224	  0.020	 -0.050
 49.228	  0.035	 -0.040
 49.232	  0.040	 -0.035
 49.236	  0.055	 -0.020
 49.240	  0.085	  0.000
 49.244	  0.135	  0.015
 49.248	  0.200	  0.025
 49.252	  0.255	  0.025
 49.256	  0.300	  0.015
 49.260	  0.335	  0.000
 49.264	  0.360	 -0.040
 49.268	  0.385	 -0.055
 49.272	  0.405	 -0.055
 49.276	  0.360	 -0.060
 49.280	  0.280	 -0.080
 49.284	  0.225	 -0.080
 49.288	  0.185	 -0.075
 49.292	  0.125	 -0.075
 49.296	  0.055	 -0.080
 49.300	  0.005	 -0.090
 49.304	 -0.035	 -0.100
 49.308	 -0.065	 -0.110
 49.312	 -0.090	 -0.120
 49.316	 -0.100	 -0.125
 49.320	 -0.110	 -0.125
 49.324	 -0.120	 -0.125
 49.328	 -0.130	 -0.130
 49.332	 -0.140	 -0.130
 49.336	 -0.155	 -0.125
 49.340	 -0.160	 -0.130
 49.344	 -0.165	 -0.135
 49.348	 -0.170	 -0.140
 49.352	 -0.175	 -0.140
 49.356	 -0.185	 -0.135
 49.360	 -0.190	 -0.130
 49.364	 -0.185	 -0.125
 49.368	 -0.180	 -0.125
 49.372	 -0.175	 -0.130
 49.376	 -0.170	 -0.135
 49.380	 -0.165	 -0.135
 49.384	 -0.165	 -0.125
 49.388	 -0.175	 -0.095
 49.392	 -0.185	 -0.055
 49.396	 -0.195	 -0.010
 49.400	 -0.115	  0.005
 49.404	  0.105	 -0.010
 49.408	  0.445	 -0.065
 49.412	  0.925	 -0.155
 49.416	  1.445	 -0.300
 49.420	  2.000	 -0.505
 49.424	  2.415	 -0.825
 49.428	  2.700	 -1.240
 49.432	  2.815	 -1.600
 49.436	  2.805	 -1.920
 49.440	  2.800	 -2.085
 49.444	  2.795	 -2.160
 49.448	  2.295	 -2.150
 49.452	  1.560	 -2.105
 49.456	  0.835	 -1.675
 49.460	  0.120	 -1.100
 49.464	 -0.115	 -0.680
 49.468	 -0.205	 -0.310
 49.472	 -0.265	 -0.145
 49.476	 -0.315	 -0.030
 49.480	 -0.365	  0.020
 49.484	 -0.420	  0.070
 49.488	 -0.440	  0.090
 49.492	 -0.460	  0.110
 49.496	 -0.480	  0.125
 49.500	 -0.505	  0.145
 49.504	 -0.505	  0.150
 49.508	 -0.505	  0.155
 49.512	 -0.510	  0.165
 49.516	 -0.515	  0.175
 49.520	 -0.515	  0.175
 49.524	 -0.515	  0.175
 49.528	 -0.515	  0.175
 49.532	 -0.510	  0.175
 49.536	 -0.500	  0.180
 49.540	 -0.495	  0.185
 49.544	 -0.495	  0.195
 49.548	 -0.495	  0.205
 49.552	 -0.495	  0.210
 49.556	 -0.495	  0.215
 49.560	 -0.495	  0.220
 49.564	 -0.495	  0.225
 49.568	 -0.495	  0.230
 49.572	 -0.490	  0.235
 49.576	 -0.485	  0.245
 49.580	 -0.485	  0.255
 49.584	 -0.485	  0.260
 49.588	 -0.485	  0.270
 49.592	 -0.490	  0.285
 49.596	 -0.495	  0.300
 49.600	 -0.495	  0.310
 49.604	 -0.495	  0.325
 49.608	 -0.500	  0.345
 49.612	 -0.515	  0.365
 49.616	 -0.535	  0.385
 49.620	 -0.560	  0.400
 49.624	 -0.585	  0.410
 49.628	 -0.610	  0.430
 49.632	 -0.630	  0.450
 49.636	 -0.655	  0.470
 49.640	 -0.690	  0.490
 49.644	 -0.715	  0.505
 49.648	 -0.740	  0.520
 49.652	 -0.765	  0.520
 49.656	 -0.790	  0.515
 49.660	 -0.795	  0.515
 49.664	 -0.800	  0.520
 49.668	 -0.795	  0.510
 49.672	 -0.790	  0.500
 49.676	 -0.760	  0.475
 49.680	 -0.730	  0.450
 49.684	 -0.685	  0.415
 49.688	 -0.635	  0.375
 49.692	 -0.560	  0.330
 49.696	 -0.490	  0.285
 49.700	 -0.430	  0.245
 49.704	 -0.370	  0.205
 49.708	 -0.325	  0.165
 49.712	 -0.280	  0.125
 49.716	 -0.240	  0.095
 49.720	 -0.200	  0.065
 49.724	 -0.160	  0.040
 49.728	 -0.130	  0.020
 49.732	 -0.120	  0.010
 49.736	 -0.110	  0.000
 49.740	 -0.100	 -0.005
 49.744	 -0.095	 -0.015
 49.748	 -0.095	 -0.020
 49.752	 -0.090	 -0.025
 49.756	 -0.085	 -0.030
 49.760	 -0.080	 -0.030
 49.764	 -0.075	 -0.025
 49.768	 -0.075	 -0.025
 49.772	 -0.080	 -0.030
 49.776	 -0.085	 -0.035
 49.780	 -0.090	 -0.035
 49.784	 -0.090	 -0.035
 49.788	 -0.085	 -0.035
 49.792	 -0.085	 -0.035
 49.796	 -0.085	 -0.035
 49.800	 -0.075	 -0.030
 49.804	 -0.065	 -0.025
 49.808	 -0.065	 -0.025
 49.812	 -0.065	 -0.030
 49.816	 -0.050	 -0.035
 49.820	 -0.035	 -0.035
 49.824	 -0.030	 -0.035
 49.828	 -0.025	 -0.035
 49.832	 -0.020	 -0.035
 49.836	 -0.010	 -0.045
 49.840	 -0.005	 -0.045
 49.844	  0.000	 -0.045
 49.848	  0.000	 -0.045
 49.852	  0.005	 -0.045
 49.856	  0.005	 -0.045
 49.860	  0.005	 -0.045
 49.864	  0.015	 -0.045
 49.868	  0.025	 -0.040
 49.872	  0.045	 -0.030
 49.876	  0.065	 -0.020
 49.880	  0.080	 -0.010
 49.884	  0.095	  0.000
 49.888	  0.110	  0.010
 49.892	  0.140	  0.030
 49.896	  0.190	  0.055
 49.900	  0.255	  0.070
 49.904	  0.330	  0.065
 49.908	  0.375	  0.050
 49.912	  0.375	  0.020
 49.916	  0.395	  0.000
 49.920	  0.450	 -0.015
 49.924	  0.450	 -0.025
 49.928	  0.410	 -0.030
 49.932	  0.355	 -0.035
 49.936	  0.285	 -0.040
 49.940	  0.230	 -0.045
 49.944	  0.180	 -0.045
 49.948	  0.125	 -0.050
 49.952	  0.070	 -0.060
 49.956	  0.020	 -0.070
 49.960	 -0.020	 -0.080
 49.964	 -0.045	 -0.085
 49.968	 -0.060	 -0.085
 49.972	 -0.075	 -0.090
 49.976	 -0.090	 -0.100
 49.980	 -0.105	 -0.105
 49.984	 -0.120	 -0.105
 49.988	 -0.125	 -0.105
 49.992	 -0.125	 -0.105
 49.996	 -0.130	 -0.105
 50.000	 -0.145	 -0.115
 50.004	 -0.145	 -0.115
 50.008	 -0.145	 -0.115
 50.012	 -0.145	 -0.115
 50.016	 -0.145	 -0.110
 50.020	 -0.150	 -0.105
 50.024	 -0.150	 -0.105
 50.028	 -0.145	 -0.105
 50.032	 -0.140	 -0.100
 50.036	 -0.135	 -0.095
 50.040	 -0.135	 -0.080
 50.044	 -0.140	 -0.025
 50.048	 -0.135	  0.015
 50.052	 -0.110	  0.025
 50.056	  0.000	  0.025
 50.060	  0.295	  0.005
 50.064	  0.675	 -0.045
 50.068	  1.185	 -0.165
 50.072	  1.715	 -0.355
 50.076	  2.260	 -0.640
 50.080	  2.620	 -1.010
 50.084	  2.765	 -1.475
 50.088	  2.825	 -1.815
 50.092	  2.815	 -2.035
 50.096	  2.785	 -2.160
 50.100	  2.735	 -2.205
 50.104	  2.080	 -2.080
 50.108	  1.050	 -1.850
 50.112	  0.430	 -1.405
 50.116	  0.030	 -0.850
 50.120	 -0.135	 -0.475
 50.124	 -0.215	 -0.175
 50.128	 -0.265	 -0.035
 50.132	 -0.305	  0.045
 50.136	 -0.350	  0.085
 50.140	 -0.395	  0.120
 50.144	 -0.420	  0.145
 50.148	 -0.440	  0.170
 50.152	 -0.455	  0.185
 50.156	 -0.470	  0.200
 50.160	 -0.475	  0.205
 50.164	 -0.475	  0.205
 50.168	 -0.475	  0.215
 50.172	 -0.475	  0.225
 50.176	 -0.480	  0.230
 50.180	 -0.480	  0.235
 50.184	 -0.475	  0.240
 50.188	 -0.470	  0.240
 50.192	 -0.465	  0.235
 50.196	 -0.460	  0.235
 50.200	 -0.455	  0.240
 50.204	 -0.450	  0.245
 50.208	 -0.445	  0.250
 50.212	 -0.440	  0.255
 50.216	 -0.435	  0.255
 50.220	 -0.435	  0.255
 50.224	 -0.435	  0.260
 50.228	 -0.435	  0.270
 50.232	 -0.435	  0.285
 50.236	 -0.435	  0.295
 50.240	 -0.435	  0.300
 50.244	 -0.435	  0.305
 50.248	 -0.435	  0.315
 50.252	 -0.435	  0.325
 50.256	 -0.435	  0.330
 50.260	 -0.435	  0.345
 50.264	 -0.440	  0.365
 50.268	 -0.450	  0.390
 50.272	 -0.465	  0.415
 50.276	 -0.485	  0.430
 50.280	 -0.505	  0.450
 50.284	 -0.530	  0.465
 50.288	 -0.555	  0.480
 50.292	 -0.590	  0.495
 50.296	 -0.625	  0.510
 50.300	 -0.655	  0.525
 50.304	 -0.680	  0.540
 50.308	 -0.705	  0.545
 50.312	 -0.730	  0.545
 50.316	 -0.735	  0.535
 50.320	 -0.735	  0.525
 50.324	 -0.720	  0.515
 50.328	 -0.705	  0.505
 50.332	 -0.665	  0.485
 50.336	 -0.620	  0.460
 50.340	 -0.570	  0.410
 50.344	 -0.520	  0.360
 50.348	 -0.465	  0.325
 50.352	 -0.405	  0.290
 50.356	 -0.355	  0.245
 50.360	 -0.305	  0.210
 50.364	 -0.255	  0.175
 50.368	 -0.205	  0.145
 50.372	 -0.170	  0.110
 50.376	 -0.135	  0.075
 50.380	 -0.115	  0.055
 50.384	 -0.100	  0.040
 50.388	 -0.085	  0.030
 50.392	 -0.075	  0.020
 50.396	 -0.080	  0.015
 50.400	 -0.085	  0.010
 50.404	 -0.085	  0.005
 50.408	 -0.080	  0.005
 50.412	 -0.075	  0.005
 50.416	 -0.075	  0.000
 50.420	 -0.080	  0.000
 50.424	 -0.075	  0.000
 50.428	 -0.065	  0.000
 50.432	 -0.065	  0.005
 50.436	 -0.070	  0.005
 50.440	 -0.070	  0.005
 50.444	 -0.065	  0.005
 50.448	 -0.055	  0.005
 50.452	 -0.045	  0.010
 50.456	 -0.040	  0.010
 50.460	 -0.035	  0.005
 50.464	 -0.030	  0.000
 50.468	 -0.025	  0.000
 50.472	 -0.010	 -0.005
 50.476	  0.000	 -0.010
 50.480	  0.005	 -0.010
 50.484	  0.010	 -0.005
 50.488	  0.015	 -0.005
 50.492	  0.020	 -0.010
 50.496	  0.020	 -0.015
 50.500	  0.015	 -0.025
 50.504	  0.020	 -0.035
 50.508	  0.025	 -0.040
 50.512	  0.030	 -0.030
 50.516	  0.030	 -0.025
 50.520	  0.025	 -0.030
 50.524	  0.020	 -0.035
 50.528	  0.015	 -0.040
 50.532	  0.015	 -0.040
 50.536	  0.025	 -0.035
 50.540	  0.040	 -0.025
 50.544	  0.065	  0.000
 50.548	  0.085	  0.015
 50.552	  0.095	  0.020
 50.556	  0.110	  0.025
 50.560	  0.125	  0.035
 50.564	  0.155	  0.050
 50.568	  0.225	  0.080
 50.572	  0.290	  0.090
 50.576	  0.350	  0.085
 50.580	  0.390	  0.060
 50.584	  0.415	  0.015
 50.588	  0.445	 -0.005
 50.592	  0.485	 -0.010
 50.596	  0.460	 -0.020
 50.600	  0.385	 -0.030
 50.604	  0.320	 -0.035
 50.608	  0.260	 -0.035
 50.612	  0.205	 -0.035
 50.616	  0.150	 -0.040
 50.620	  0.095	 -0.055
 50.624	  0.045	 -0.070
 50.628	  0.015	 -0.075
 50.632	  0.000	 -0.080
 50.636	 -0.015	 -0.085
 50.640	 -0.030	 -0.085
 50.644	 -0.045	 -0.090
 50.648	 -0.060	 -0.100
 50.652	 -0.075	 -0.105
 50.656	 -0.090	 -0.105
 50.660	 -0.095	 -0.100
 50.664	 -0.095	 -0.095
 50.668	 -0.105	 -0.095
 50.672	 -0.115	 -0.095
 50.676	 -0.115	 -0.095
 50.680	 -0.110	 -0.095
 50.684	 -0.105	 -0.100
 50.688	 -0.100	 -0.100
 50.692	 -0.095	 -0.095
 50.696	 -0.090	 -0.095
 50.700	 -0.085	 -0.095
 50.704	 -0.085	 -0.090
 50.708	 -0.090	 -0.075
 50.712	 -0.100	 -0.045
 50.716	 -0.120	  0.010
 50.720	 -0.095	  0.045
 50.724	  0.015	  0.025
 50.728	  0.245	  0.000
 50.732	  0.670	 -0.050
 50.736	  1.160	 -0.155
 50.740	  1.745	 -0.335
 50.744	  2.250	 -0.615
 50.748	  2.660	 -1.015
 50.752	  2.860	 -1.410
 50.756	  2.855	 -1.805
 50.760	  2.850	 -2.040
 50.764	  2.845	 -2.150
 50.768	  2.610	 -2.195
 50.772	  2.215	 -2.195
 50.776	  1.480	 -1.870
 50.780	  0.560	 -1.370
 50.784	  0.150	 -0.915
 50.788	 -0.025	 -0.485
 50.792	 -0.130	 -0.245
 50.796	 -0.205	 -0.070
 50.800	 -0.255	  0.005
 50.804	 -0.295	  0.065
 50.808	 -0.330	  0.095
 50.812	 -0.370	  0.120
 50.816	 -0.395	  0.130
 50.820	 -0.420	  0.140
 50.824	 -0.425	  0.155
 50.828	 -0.425	  0.170
 50.832	 -0.430	  0.180
 50.836	 -0.445	  0.195
 50.840	 -0.445	  0.195
 50.844	 -0.440	  0.195
 50.848	 -0.435	  0.200
 50.852	 -0.430	  0.205
 50.856	 -0.425	  0.205
 50.860	 -0.425	  0.205
 50.864	 -0.425	  0.215
 50.868	 -0.425	  0.225
 50.872	 -0.425	  0.230
 50.876	 -0.420	  0.230
 50.880	 -0.410	  0.225
 50.884	 -0.405	  0.225
 50.888	 -0.410	  0.225
 50.892	 -0.410	  0.230
 50.896	 -0.405	  0.245
 50.900	 -0.405	  0.255
 50.904	 -0.405	  0.260
 50.908	 -0.400	  0.265
 50.912	 -0.395	  0.270
 50.916	 -0.395	  0.275
 50.920	 -0.400	  0.280
 50.924	 -0.410	  0.295
 50.928	 -0.420	  0.315
 50.932	 -0.430	  0.330
 50.936	 -0.440	  0.340
 50.940	 -0.450	  0.355
 50.944	 -0.465	  0.375
 50.948	 -0.490	  0.395
 50.952	 -0.515	  0.415
 50.956	 -0.545	  0.435
 50.960	 -0.575	  0.460
 50.964	 -0.605	  0.475
 50.968	 -0.635	  0.490
 50.972	 -0.665	  0.500
 50.976	 -0.700	  0.510
 50.980	 -0.725	  0.515
 50.984	 -0.750	  0.520
 50.988	 -0.770	  0.525
 50.992	 -0.790	  0.525
 50.996	 -0.790	  0.515
 51.000	 -0.785	  0.505
 51.004	 -0.750	  0.475
 51.008	 -0.720	  0.450
 51.012	 -0.665	  0.420
 51.016	 -0.605	  0.390
 51.020	 -0.530	  0.340
 51.024	 -0.455	  0.295
 51.028	 -0.400	  0.250
 51.032	 -0.340	  0.205
 51.036	 -0.275	  0.165
 51.040	 -0.210	  0.125
 51.044	 -0.160	  0.095
 51.048	 -0.115	  0.065
 51.052	 -0.085	  0.045
 51.056	 -0.055	  0.030
 51.060	 -0.035	  0.020
 51.064	 -0.020	  0.005
 51.068	 -0.010	 -0.010
 51.072	  0.000	 -0.025
 51.076	  0.000	 -0.025
 51.080	  0.005	 -0.025
 51.084	  0.005	 -0.025
 51.088	  0.005	 -0.025
 51.092	  0.005	 -0.030
 51.096	  0.005	 -0.035
 51.100	  0.005	 -0.040
 51.104	  0.005	 -0.040
 51.108	  0.010	 -0.035
 51.112	  0.010	 -0.030
 51.116	  0.005	 -0.025
 51.120	  0.005	 -0.025
 51.124	  0.010	 -0.030
 51.128	  0.015	 -0.030
 51.132	  0.020	 -0.025
 51.136	  0.025	 -0.030
 51.140	  0.030	 -0.040
 51.144	  0.035	 -0.040
 51.148	  0.040	 -0.035
 51.152	  0.050	 -0.035
 51.156	  0.060	 -0.040
 51.160	  0.070	 -0.045
 51.164	  0.080	 -0.045
 51.168	  0.085	 -0.050
 51.172	  0.085	 -0.055
 51.176	  0.085	 -0.055
 51.180	  0.080	 -0.055
 51.184	  0.075	 -0.055
 51.188	  0.075	 -0.055
 51.192	  0.085	 -0.055
 51.196	  0.095	 -0.050
 51.200	  0.105	 -0.040
 51.204	  0.120	 -0.030
 51.208	  0.145	 -0.025
 51.212	  0.165	 -0.020
 51.216	  0.165	 -0.015
 51.220	  0.175	 -0.005
 51.224	  0.215	  0.015
 51.228	  0.270	  0.035
 51.232	  0.340	  0.040
 51.236	  0.395	  0.040
 51.240	  0.420	  0.030
 51.244	  0.450	  0.005
 51.248	  0.485	 -0.025
 51.252	  0.510	 -0.045
 51.256	  0.525	 -0.050
 51.260	  0.490	 -0.060
 51.264	  0.405	 -0.070
 51.268	  0.340	 -0.070
 51.272	  0.290	 -0.065
 51.276	  0.230	 -0.070
 51.280	  0.165	 -0.080
 51.284	  0.105	 -0.095
 51.288	  0.055	 -0.110
 51.292	  0.030	 -0.115
 51.296	  0.015	 -0.120
 51.300	  0.000	 -0.125
 51.304	 -0.010	 -0.125
 51.308	 -0.025	 -0.130
 51.312	 -0.040	 -0.140
 51.316	 -0.050	 -0.140
 51.320	 -0.060	 -0.135
 51.324	 -0.065	 -0.135
 51.328	 -0.065	 -0.135
 51.332	 -0.065	 -0.130
 51.336	 -0.075	 -0.125
 51.340	 -0.085	 -0.130
 51.344	 -0.090	 -0.135
 51.348	 -0.080	 -0.135
 51.352	 -0.075	 -0.130
 51.356	 -0.075	 -0.125
 51.360	 -0.075	 -0.120
 51.364	 -0.075	 -0.105
 51.368	 -0.080	 -0.080
 51.372	 -0.105	 -0.020
 51.376	 -0.090	  0.015
 51.380	  0.035	  0.000
 51.384	  0.250	 -0.030
 51.388	  0.680	 -0.090
 51.392	  1.145	 -0.190
 51.396	  1.680	 -0.365
 51.400	  2.170	 -0.630
 51.404	  2.600	 -1.035
 51.408	  2.845	 -1.435
 51.412	  2.855	 -1.820
 51.416	  2.855	 -2.070
 51.420	  2.840	 -2.165
 51.424	  2.690	 -2.205
 51.428	  2.415	 -2.190
 51.432	  1.720	 -1.885
 51.436	  0.710	 -1.365
 51.440	  0.200	 -0.915
 51.444	 -0.010	 -0.505
 51.448	 -0.125	 -0.260
 51.452	 -0.185	 -0.100
 51.456	 -0.235	 -0.025
 51.460	 -0.280	  0.015
 51.464	 -0.325	  0.040
 51.468	 -0.365	  0.060
 51.472	 -0.385	  0.080
 51.476	 -0.400	  0.100
 51.480	 -0.415	  0.110
 51.484	 -0.430	  0.120
 51.488	 -0.430	  0.125
 51.492	 -0.425	  0.130
 51.496	 -0.425	  0.135
 51.500	 -0.435	  0.145
 51.504	 -0.425	  0.145
 51.508	 -0.420	  0.145
 51.512	 -0.415	  0.155
 51.516	 -0.415	  0.165
 51.520	 -0.415	  0.165
 51.524	 -0.415	  0.165
 51.528	 -0.415	  0.165
 51.532	 -0.410	  0.165
 51.536	 -0.405	  0.165
 51.540	 -0.405	  0.165
 51.544	 -0.405	  0.175
 51.548	 -0.400	  0.185
 51.552	 -0.395	  0.185
 51.556	 -0.395	  0.185
 51.560	 -0.400	  0.195
 51.564	 -0.405	  0.205
 51.568	 -0.405	  0.215
 51.572	 -0.400	  0.225
 51.576	 -0.395	  0.235
 51.580	 -0.400	  0.250
 51.584	 -0.415	  0.265
 51.588	 -0.430	  0.280
 51.592	 -0.440	  0.290
 51.596	 -0.455	  0.300
 51.600	 -0.485	  0.315
 51.604	 -0.505	  0.335
 51.608	 -0.525	  0.355
 51.612	 -0.555	  0.375
 51.616	 -0.585	  0.395
 51.620	 -0.620	  0.410
 51.624	 -0.655	  0.420
 51.628	 -0.685	  0.425
 51.632	 -0.715	  0.430
 51.636	 -0.745	  0.435
 51.640	 -0.770	  0.435
 51.644	 -0.785	  0.435
 51.648	 -0.800	  0.435
 51.652	 -0.800	  0.420
 51.656	 -0.795	  0.405
 51.660	 -0.755	  0.375
 51.664	 -0.715	  0.345
 51.668	 -0.655	  0.305
 51.672	 -0.600	  0.270
 51.676	 -0.530	  0.230
 51.680	 -0.460	  0.190
 51.684	 -0.395	  0.145
 51.688	 -0.335	  0.100
 51.692	 -0.275	  0.070
 51.696	 -0.215	  0.040
 51.700	 -0.170	  0.015
 51.704	 -0.130	 -0.005
 51.708	 -0.110	 -0.025
 51.712	 -0.090	 -0.045
 51.716	 -0.080	 -0.055
 51.720	 -0.070	 -0.065
 51.724	 -0.060	 -0.070
 51.728	 -0.055	 -0.075
 51.732	 -0.055	 -0.080
 51.736	 -0.055	 -0.085
 51.740	 -0.060	 -0.085
 51.744	 -0.060	 -0.085
 51.748	 -0.055	 -0.085
 51.752	 -0.050	 -0.085
 51.756	 -0.045	 -0.090
 51.760	 -0.045	 -0.085
 51.764	 -0.045	 -0.075
 51.768	 -0.045	 -0.075
 51.772	 -0.045	 -0.080
 51.776	 -0.040	 -0.085
 51.780	 -0.035	 -0.085
 51.784	 -0.025	 -0.085
 51.788	 -0.015	 -0.085
 51.792	 -0.010	 -0.085
 51.796	 -0.005	 -0.090
 51.800	  0.000	 -0.090
 51.804	  0.000	 -0.085
 51.808	  0.010	 -0.085
 51.812	  0.020	 -0.090
 51.816	  0.025	 -0.095
 51.820	  0.025	 -0.100
 51.824	  0.025	 -0.105
 51.828	  0.030	 -0.110
 51.832	  0.035	 -0.115
 51.836	  0.035	 -0.115
 51.840	  0.035	 -0.115
 51.844	  0.035	 -0.115
 51.848	  0.035	 -0.115
 51.852	  0.035	 -0.115
 51.856	  0.035	 -0.120
 51.860	  0.035	 -0.120
 51.864	  0.050	 -0.105
 51.868	  0.065	 -0.095
 51.872	  0.080	 -0.095
 51.876	  0.095	 -0.090
 51.880	  0.105	 -0.075
 51.884	  0.125	 -0.055
 51.888	  0.165	 -0.030
 51.892	  0.220	 -0.015
 51.896	  0.295	 -0.015
 51.900	  0.345	 -0.020
 51.904	  0.355	 -0.040
 51.908	  0.390	 -0.065
 51.912	  0.450	 -0.095
 51.916	  0.470	 -0.115
 51.920	  0.435	 -0.120
 51.924	  0.385	 -0.125
 51.928	  0.320	 -0.125
 51.932	  0.255	 -0.125
 51.936	  0.195	 -0.125
 51.940	  0.135	 -0.135
 51.944	  0.080	 -0.155
 51.948	  0.035	 -0.165
 51.952	  0.000	 -0.170
 51.956	 -0.025	 -0.175
 51.960	 -0.050	 -0.180
 51.964	 -0.065	 -0.185
 51.968	 -0.080	 -0.190
 51.972	 -0.085	 -0.195
 51.976	 -0.090	 -0.195
 51.980	 -0.095	 -0.190
 51.984	 -0.100	 -0.185
 51.988	 -0.110	 -0.185
 51.992	 -0.120	 -0.190
 51.996	 -0.125	 -0.195
 52.000	 -0.135	 -0.195
 52.004	 -0.135	 -0.195
 52.008	 -0.135	 -0.195
 52.012	 -0.135	 -0.195
 52.016	 -0.135	 -0.190
 52.020	 -0.135	 -0.185
 52.024	 -0.135	 -0.180
 52.028	 -0.135	 -0.165
 52.032	 -0.135	 -0.140
 52.036	 -0.165	 -0.085
 52.040	 -0.155	 -0.045
 52.044	 -0.045	 -0.060
 52.048	  0.155	 -0.090
 52.052	  0.585	 -0.160
 52.056	  1.055	 -0.255
 52.060	  1.615	 -0.420
 52.064	  2.135	 -0.670
 52.068	  2.595	 -1.070
 52.072	  2.860	 -1.455
 52.076	  2.855	 -1.810
 52.080	  2.845	 -2.045
 52.084	  2.820	 -2.140
 52.088	  2.650	 -2.185
 52.092	  2.340	 -2.185
 52.096	  1.630	 -1.910
 52.100	  0.610	 -1.430
 52.104	  0.100	 -0.995
 52.108	 -0.080	 -0.590
 52.112	 -0.185	 -0.345
 52.116	 -0.245	 -0.180
 52.120	 -0.300	 -0.100
 52.124	 -0.350	 -0.055
 52.128	 -0.390	 -0.020
 52.132	 -0.425	  0.005
 52.136	 -0.445	  0.025
 52.140	 -0.460	  0.040
 52.144	 -0.470	  0.050
 52.148	 -0.480	  0.060
 52.152	 -0.485	  0.065
 52.156	 -0.490	  0.070
 52.160	 -0.490	  0.080
 52.164	 -0.485	  0.090
 52.168	 -0.490	  0.100
 52.172	 -0.490	  0.105
 52.176	 -0.480	  0.105
 52.180	 -0.475	  0.105
 52.184	 -0.475	  0.105
 52.188	 -0.475	  0.105
 52.192	 -0.475	  0.110
 52.196	 -0.470	  0.115
 52.200	 -0.460	  0.120
 52.204	 -0.455	  0.125
 52.208	 -0.455	  0.135
 52.212	 -0.455	  0.145
 52.216	 -0.460	  0.150
 52.220	 -0.460	  0.155
 52.224	 -0.455	  0.175
 52.228	 -0.455	  0.185
 52.232	 -0.460	  0.185
 52.236	 -0.465	  0.190
 52.240	 -0.465	  0.210
 52.244	 -0.465	  0.225
 52.248	 -0.475	  0.235
 52.252	 -0.490	  0.250
 52.256	 -0.505	  0.265
 52.260	 -0.520	  0.285
 52.264	 -0.530	  0.305
 52.268	 -0.550	  0.330
 52.272	 -0.575	  0.355
 52.276	 -0.605	  0.370
 52.280	 -0.640	  0.390
 52.284	 -0.675	  0.400
 52.288	 -0.715	  0.410
 52.292	 -0.745	  0.420
 52.296	 -0.775	  0.430
 52.300	 -0.800	  0.435
 52.304	 -0.820	  0.440
 52.308	 -0.825	  0.435
 52.312	 -0.830	  0.425
 52.316	 -0.815	  0.405
 52.320	 -0.795	  0.385
 52.324	 -0.760	  0.355
 52.328	 -0.725	  0.325
 52.332	 -0.670	  0.285
 52.336	 -0.610	  0.240
 52.340	 -0.545	  0.200
 52.344	 -0.480	  0.160
 52.348	 -0.425	  0.125
 52.352	 -0.365	  0.090
 52.356	 -0.315	  0.045
 52.360	 -0.265	  0.010
 52.364	 -0.225	 -0.005
 52.368	 -0.185	 -0.030
 52.372	 -0.160	 -0.055
 52.376	 -0.140	 -0.080
 52.380	 -0.125	 -0.100
 52.384	 -0.110	 -0.115
 52.388	 -0.100	 -0.115
 52.392	 -0.095	 -0.115
 52.396	 -0.095	 -0.115
 52.400	 -0.090	 -0.115
 52.404	 -0.085	 -0.120
 52.408	 -0.085	 -0.125
 52.412	 -0.090	 -0.125
 52.416	 -0.090	 -0.125
 52.420	 -0.085	 -0.125
 52.424	 -0.085	 -0.120
 52.428	 -0.090	 -0.115
 52.432	 -0.090	 -0.115
 52.436	 -0.085	 -0.120
 52.440	 -0.080	 -0.125
 52.444	 -0.075	 -0.130
 52.448	 -0.070	 -0.135
 52.452	 -0.065	 -0.135
 52.456	 -0.060	 -0.130
 52.460	 -0.055	 -0.125
 52.464	 -0.050	 -0.125
 52.468	 -0.045	 -0.125
 52.472	 -0.040	 -0.125
 52.476	 -0.035	 -0.130
 52.480	 -0.030	 -0.135
 52.484	 -0.025	 -0.135
 52.488	 -0.025	 -0.135
 52.492	 -0.025	 -0.140
 52.496	 -0.020	 -0.145
 52.500	 -0.015	 -0.155
 52.504	 -0.015	 -0.155
 52.508	 -0.010	 -0.150
 52.512	  0.000	 -0.145
 52.516	  0.005	 -0.140
 52.520	  0.025	 -0.125
 52.524	  0.045	 -0.110
 52.528	  0.065	 -0.100
 52.532	  0.080	 -0.095
 52.536	  0.075	 -0.095
 52.540	  0.085	 -0.085
 52.544	  0.130	 -0.055
 52.548	  0.180	 -0.030
 52.552	  0.250	 -0.020
 52.556	  0.300	 -0.020
 52.560	  0.325	 -0.045
 52.564	  0.360	 -0.070
 52.568	  0.400	 -0.100
 52.572	  0.425	 -0.115
 52.576	  0.430	 -0.125
 52.580	  0.395	 -0.135
 52.584	  0.320	 -0.135
 52.588	  0.255	 -0.135
 52.592	  0.205	 -0.135
 52.596	  0.145	 -0.140
 52.600	  0.080	 -0.155
 52.604	  0.020	 -0.170
 52.608	 -0.025	 -0.180
 52.612	 -0.060	 -0.185
 52.616	 -0.085	 -0.185
 52.620	 -0.100	 -0.185
 52.624	 -0.110	 -0.190
 52.628	 -0.120	 -0.195
 52.632	 -0.130	 -0.195
 52.636	 -0.140	 -0.195
 52.640	 -0.150	 -0.200
 52.644	 -0.155	 -0.205
 52.648	 -0.160	 -0.205
 52.652	 -0.165	 -0.200
 52.656	 -0.170	 -0.195
 52.660	 -0.175	 -0.195
 52.664	 -0.180	 -0.200
 52.668	 -0.170	 -0.205
 52.672	 -0.165	 -0.200
 52.676	 -0.175	 -0.190
 52.680	 -0.180	 -0.180
 52.684	 -0.170	 -0.175
 52.688	 -0.165	 -0.165
 52.692	 -0.175	 -0.125
 52.696	 -0.180	 -0.090
 52.700	 -0.170	 -0.075
 52.704	 -0.105	 -0.065
 52.708	  0.155	 -0.080
 52.712	  0.495	 -0.125
 52.716	  1.020	 -0.250
 52.720	  1.555	 -0.425
 52.724	  2.110	 -0.720
 52.728	  2.530	 -1.080
 52.732	  2.720	 -1.540
 52.736	  2.825	 -1.900
 52.740	  2.810	 -2.115
 52.744	  2.790	 -2.255
 52.748	  2.765	 -2.305
 52.752	  2.250	 -2.185
 52.756	  1.240	 -1.895
 52.760	  0.540	 -1.475
 52.764	  0.100	 -0.945
 52.768	 -0.120	 -0.565
 52.772	 -0.205	 -0.285
 52.776	 -0.260	 -0.130
 52.780	 -0.310	 -0.050
 52.784	 -0.355	 -0.010
 52.788	 -0.400	  0.000
 52.792	 -0.430	  0.025
 52.796	 -0.450	  0.055
 52.800	 -0.470	  0.070
 52.804	 -0.490	  0.080
 52.808	 -0.495	  0.090
 52.812	 -0.495	  0.100
 52.816	 -0.495	  0.105
 52.820	 -0.500	  0.105
 52.824	 -0.500	  0.105
 52.828	 -0.495	  0.110
 52.832	 -0.495	  0.115
 52.836	 -0.490	  0.125
 52.840	 -0.480	  0.125
 52.844	 -0.475	  0.125
 52.848	 -0.475	  0.125
 52.852	 -0.470	  0.125
 52.856	 -0.465	  0.130
 52.860	 -0.465	  0.135
 52.864	 -0.465	  0.145
 52.868	 -0.460	  0.155
 52.872	 -0.455	  0.160
 52.876	 -0.450	  0.165
 52.880	 -0.445	  0.165
 52.884	 -0.445	  0.170
 52.888	 -0.445	  0.190
 52.892	 -0.445	  0.210
 52.896	 -0.450	  0.225
 52.900	 -0.455	  0.235
 52.904	 -0.465	  0.240
 52.908	 -0.475	  0.250
 52.912	 -0.480	  0.270
 52.916	 -0.490	  0.290
 52.920	 -0.505	  0.315
 52.924	 -0.525	  0.335
 52.928	 -0.545	  0.360
 52.932	 -0.575	  0.375
 52.936	 -0.610	  0.380
 52.940	 -0.640	  0.390
 52.944	 -0.665	  0.400
 52.948	 -0.685	  0.415
 52.952	 -0.705	  0.435
 52.956	 -0.725	  0.440
 52.960	 -0.750	  0.435
 52.964	 -0.760	  0.420
 52.968	 -0.770	  0.405
 52.972	 -0.750	  0.385
 52.976	 -0.715	  0.365
 52.980	 -0.680	  0.335
 52.984	 -0.645	  0.305
 52.988	 -0.585	  0.270
 52.992	 -0.525	  0.235
 52.996	 -0.465	  0.190
 53.000	 -0.405	  0.145
 53.004	 -0.345	  0.100
 53.008	 -0.290	  0.060
 53.012	 -0.240	  0.030
 53.016	 -0.190	  0.000
 53.020	 -0.160	 -0.020
 53.024	 -0.130	 -0.045
 53.028	 -0.115	 -0.060
 53.032	 -0.100	 -0.075
 53.036	 -0.095	 -0.085
 53.040	 -0.095	 -0.095
 53.044	 -0.095	 -0.095
 53.048	 -0.090	 -0.095
 53.052	 -0.085	 -0.095
 53.056	 -0.085	 -0.095
 53.060	 -0.085	 -0.100
 53.064	 -0.080	 -0.105
 53.068	 -0.075	 -0.110
 53.072	 -0.075	 -0.110
 53.076	 -0.075	 -0.105
 53.080	 -0.070	 -0.100
 53.084	 -0.065	 -0.095
 53.088	 -0.065	 -0.095
 53.092	 -0.070	 -0.100
 53.096	 -0.065	 -0.100
 53.100	 -0.050	 -0.095
 53.104	 -0.040	 -0.095
 53.108	 -0.035	 -0.095
 53.112	 -0.030	 -0.095
 53.116	 -0.025	 -0.095
 53.120	 -0.015	 -0.095
 53.124	 -0.005	 -0.100
 53.128	  0.000	 -0.105
 53.132	  0.000	 -0.105
 53.136	  0.005	 -0.105
 53.140	  0.010	 -0.110
 53.144	  0.015	 -0.115
 53.148	  0.015	 -0.115
 53.152	  0.010	 -0.115
 53.156	  0.005	 -0.120
 53.160	  0.010	 -0.125
 53.164	  0.020	 -0.130
 53.168	  0.030	 -0.120
 53.172	  0.035	 -0.110
 53.176	  0.055	 -0.095
 53.180	  0.075	 -0.085
 53.184	  0.080	 -0.085
 53.188	  0.085	 -0.080
 53.192	  0.095	 -0.060
 53.196	  0.115	 -0.040
 53.200	  0.175	 -0.015
 53.204	  0.240	  0.000
 53.208	  0.310	  0.000
 53.212	  0.365	 -0.015
 53.216	  0.370	 -0.055
 53.220	  0.390	 -0.085
 53.224	  0.455	 -0.090
 53.228	  0.470	 -0.100
 53.232	  0.415	 -0.115
 53.236	  0.360	 -0.125
 53.240	  0.295	 -0.125
 53.244	  0.235	 -0.125
 53.248	  0.175	 -0.130
 53.252	  0.115	 -0.140
 53.256	  0.065	 -0.150
 53.260	  0.025	 -0.160
 53.264	 -0.010	 -0.170
 53.268	 -0.030	 -0.175
 53.272	 -0.045	 -0.175
 53.276	 -0.060	 -0.175
 53.280	 -0.080	 -0.180
 53.284	 -0.090	 -0.185
 53.288	 -0.100	 -0.185
 53.292	 -0.105	 -0.185
 53.296	 -0.110	 -0.185
 53.300	 -0.120	 -0.185
 53.304	 -0.130	 -0.185
 53.308	 -0.135	 -0.180
 53.312	 -0.135	 -0.175
 53.316	 -0.130	 -0.175
 53.320	 -0.125	 -0.175
 53.324	 -0.120	 -0.175
 53.328	 -0.115	 -0.175
 53.332	 -0.115	 -0.170
 53.336	 -0.115	 -0.160
 53.340	 -0.115	 -0.150
 53.344	 -0.115	 -0.140
 53.348	 -0.130	 -0.070
 53.352	 -0.130	 -0.015
 53.356	 -0.040	 -0.035
 53.360	  0.090	 -0.060
 53.364	  0.455	 -0.100
 53.368	  0.850	 -0.165
 53.372	  1.385	 -0.315
 53.376	  1.900	 -0.515
 53.380	  2.380	 -0.855
 53.384	  2.730	 -1.215
 53.388	  2.780	 -1.630
 53.392	  2.810	 -1.955
 53.396	  2.800	 -2.100
 53.400	  2.740	 -2.205
 53.404	  2.605	 -2.240
 53.408	  2.080	 -2.070
 53.412	  1.040	 -1.635
 53.416	  0.365	 -1.190
 53.420	  0.075	 -0.735
 53.424	 -0.100	 -0.415
 53.428	 -0.185	 -0.210
 53.432	 -0.250	 -0.085
 53.436	 -0.295	 -0.025
 53.440	 -0.340	  0.005
 53.444	 -0.380	  0.025
 53.448	 -0.405	  0.045
 53.452	 -0.425	  0.065
 53.456	 -0.440	  0.085
 53.460	 -0.450	  0.100
 53.464	 -0.455	  0.105
 53.468	 -0.460	  0.105
 53.472	 -0.465	  0.110
 53.476	 -0.465	  0.120
 53.480	 -0.465	  0.125
 53.484	 -0.465	  0.130
 53.488	 -0.465	  0.140
 53.492	 -0.465	  0.150
 53.496	 -0.460	  0.150
 53.500	 -0.455	  0.145
 53.504	 -0.455	  0.150
 53.508	 -0.450	  0.155
 53.512	 -0.440	  0.155
 53.516	 -0.435	  0.155
 53.520	 -0.440	  0.160
 53.524	 -0.445	  0.165
 53.528	 -0.445	  0.175
 53.532	 -0.440	  0.185
 53.536	 -0.430	  0.185
 53.540	 -0.425	  0.185
 53.544	 -0.430	  0.195
 53.548	 -0.435	  0.205
 53.552	 -0.445	  0.220
 53.556	 -0.455	  0.240
 53.560	 -0.455	  0.255
 53.564	 -0.460	  0.265
 53.568	 -0.475	  0.275
 53.572	 -0.485	  0.290
 53.576	 -0.495	  0.310
 53.580	 -0.515	  0.330
 53.584	 -0.540	  0.355
 53.588	 -0.570	  0.375
 53.592	 -0.600	  0.395
 53.596	 -0.635	  0.410
 53.600	 -0.675	  0.420
 53.604	 -0.710	  0.430
 53.608	 -0.740	  0.445
 53.612	 -0.770	  0.455
 53.616	 -0.795	  0.460
 53.620	 -0.810	  0.465
 53.624	 -0.820	  0.465
 53.628	 -0.820	  0.445
 53.632	 -0.815	  0.425
 53.636	 -0.780	  0.405
 53.640	 -0.740	  0.385
 53.644	 -0.680	  0.350
 53.648	 -0.620	  0.305
 53.652	 -0.550	  0.265
 53.656	 -0.475	  0.225
 53.660	 -0.415	  0.180
 53.664	 -0.355	  0.135
 53.668	 -0.290	  0.095
 53.672	 -0.230	  0.060
 53.676	 -0.190	  0.030
 53.680	 -0.150	  0.000
 53.684	 -0.120	 -0.015
 53.688	 -0.090	 -0.035
 53.692	 -0.075	 -0.045
 53.696	 -0.060	 -0.055
 53.700	 -0.055	 -0.060
 53.704	 -0.050	 -0.065
 53.708	 -0.045	 -0.065
 53.712	 -0.045	 -0.065
 53.716	 -0.050	 -0.070
 53.720	 -0.055	 -0.075
 53.724	 -0.055	 -0.080
 53.728	 -0.050	 -0.080
 53.732	 -0.045	 -0.070
 53.736	 -0.040	 -0.065
 53.740	 -0.035	 -0.065
 53.744	 -0.035	 -0.065
 53.748	 -0.040	 -0.065
 53.752	 -0.035	 -0.065
 53.756	 -0.025	 -0.070
 53.760	 -0.020	 -0.075
 53.764	 -0.015	 -0.075
 53.768	 -0.015	 -0.070
 53.772	 -0.015	 -0.065
 53.776	 -0.005	 -0.065
 53.780	  0.000	 -0.070
 53.784	  0.005	 -0.075
 53.788	  0.010	 -0.075
 53.792	  0.015	 -0.075
 53.796	  0.020	 -0.080
 53.800	  0.025	 -0.085
 53.804	  0.030	 -0.085
 53.808	  0.035	 -0.090
 53.812	  0.040	 -0.100
 53.816	  0.045	 -0.100
 53.820	  0.045	 -0.095
 53.824	  0.055	 -0.085
 53.828	  0.070	 -0.075
 53.832	  0.095	 -0.065
 53.836	  0.120	 -0.050
 53.840	  0.115	 -0.045
 53.844	  0.115	 -0.040
 53.848	  0.150	 -0.015
 53.852	  0.190	  0.005
 53.856	  0.260	  0.015
 53.860	  0.325	  0.020
 53.864	  0.350	  0.005
 53.868	  0.380	 -0.010
 53.872	  0.420	 -0.040
 53.876	  0.455	 -0.065
 53.880	  0.460	 -0.070
 53.884	  0.440	 -0.075
 53.888	  0.365	 -0.085
 53.892	  0.295	 -0.090
 53.896	  0.250	 -0.085
 53.900	  0.195	 -0.085
 53.904	  0.130	 -0.095
 53.908	  0.070	 -0.110
 53.912	  0.025	 -0.125
 53.916	  0.000	 -0.135
 53.920	 -0.015	 -0.135
 53.924	 -0.030	 -0.135
 53.928	 -0.045	 -0.135
 53.932	 -0.060	 -0.135
 53.936	 -0.075	 -0.140
 53.940	 -0.090	 -0.145
 53.944	 -0.100	 -0.150
 53.948	 -0.105	 -0.155
 53.952	 -0.110	 -0.160
 53.956	 -0.115	 -0.155
 53.960	 -0.120	 -0.145
 53.964	 -0.125	 -0.145
 53.968	 -0.130	 -0.150
 53.972	 -0.130	 -0.150
 53.976	 -0.125	 -0.145
 53.980	 -0.125	 -0.145
 53.984	 -0.125	 -0.145
 53.988	 -0.125	 -0.140
 53.992	 -0.125	 -0.135
 53.996	 -0.130	 -0.095
 54.000	 -0.145	 -0.055
 54.004	 -0.155	 -0.030
 54.008	 -0.150	 -0.015
 54.012	  0.070	 -0.035
 54.016	  0.320	 -0.060
 54.020	  0.810	 -0.140
 54.024	  1.310	 -0.240
 54.028	  1.845	 -0.445
 54.032	  2.335	 -0.690
 54.036	  2.605	 -1.115
 54.040	  2.810	 -1.515
 54.044	  2.795	 -1.835
 54.048	  2.785	 -2.080
 54.052	  2.785	 -2.140
 54.056	  2.510	 -2.120
 54.060	  1.675	 -1.940
 54.064	  0.925	 -1.625
 54.068	  0.315	 -1.095
 54.072	 -0.070	 -0.665
 54.076	 -0.165	 -0.365
 54.080	 -0.235	 -0.155
 54.084	 -0.280	 -0.060
 54.088	 -0.330	  0.000
 54.092	 -0.380	  0.030
 54.096	 -0.420	  0.055
 54.100	 -0.450	  0.085
 54.104	 -0.470	  0.100
 54.108	 -0.480	  0.110
 54.112	 -0.490	  0.115
 54.116	 -0.500	  0.120
 54.120	 -0.505	  0.125
 54.124	 -0.510	  0.130
 54.128	 -0.505	  0.135
 54.132	 -0.495	  0.140
 54.136	 -0.490	  0.150
 54.140	 -0.485	  0.160
 54.144	 -0.485	  0.165
 54.148	 -0.485	  0.165
 54.152	 -0.485	  0.160
 54.156	 -0.490	  0.155
 54.160	 -0.490	  0.160
 54.164	 -0.485	  0.170
 54.168	 -0.475	  0.180
 54.172	 -0.475	  0.185
 54.176	 -0.480	  0.195
 54.180	 -0.480	  0.205
 54.184	 -0.475	  0.210
 54.188	 -0.475	  0.215
 54.192	 -0.475	  0.225
 54.196	 -0.475	  0.235
 54.200	 -0.475	  0.245
 54.204	 -0.475	  0.255
 54.208	 -0.480	  0.260
 54.212	 -0.490	  0.270
 54.216	 -0.510	  0.290
 54.220	 -0.525	  0.305
 54.224	 -0.545	  0.315
 54.228	 -0.560	  0.330
 54.232	 -0.585	  0.350
 54.236	 -0.615	  0.370
 54.240	 -0.645	  0.390
 54.244	 -0.680	  0.410
 54.248	 -0.715	  0.425
 54.252	 -0.745	  0.440
 54.256	 -0.770	  0.450
 54.260	 -0.795	  0.455
 54.264	 -0.820	  0.460
 54.268	 -0.845	  0.465
 54.272	 -0.865	  0.465
 54.276	 -0.865	  0.450
 54.280	 -0.855	  0.430
 54.284	 -0.830	  0.410
 54.288	 -0.790	  0.390
 54.292	 -0.735	  0.355
 54.296	 -0.675	  0.320
 54.300	 -0.605	  0.280
 54.304	 -0.535	  0.240
 54.308	 -0.470	  0.200
 54.312	 -0.410	  0.160
 54.316	 -0.350	  0.120
 54.320	 -0.285	  0.085
 54.324	 -0.235	  0.055
 54.328	 -0.185	  0.025
 54.332	 -0.160	  0.010
 54.336	 -0.130	 -0.005
 54.340	 -0.120	 -0.020
 54.344	 -0.110	 -0.035
 54.348	 -0.100	 -0.045
 54.352	 -0.095	 -0.050
 54.356	 -0.095	 -0.045
 54.360	 -0.095	 -0.045
 54.364	 -0.095	 -0.045
 54.368	 -0.095	 -0.045
 54.372	 -0.095	 -0.050
 54.376	 -0.090	 -0.055
 54.380	 -0.085	 -0.055
 54.384	 -0.080	 -0.050
 54.388	 -0.070	 -0.045
 54.392	 -0.065	 -0.045
 54.396	 -0.065	 -0.050
 54.400	 -0.065	 -0.055
 54.404	 -0.070	 -0.060
 54.408	 -0.065	 -0.060
 54.412	 -0.050	 -0.055
 54.416	 -0.045	 -0.055
 54.420	 -0.045	 -0.055
 54.424	 -0.035	 -0.055
 54.428	 -0.025	 -0.055
 54.432	 -0.025	 -0.055
 54.436	 -0.025	 -0.060
 54.440	 -0.015	 -0.065
 54.444	 -0.005	 -0.070
 54.448	  0.000	 -0.075
 54.452	  0.000	 -0.075
 54.456	  0.005	 -0.075
 54.460	  0.005	 -0.075
 54.464	  0.005	 -0.075
 54.468	  0.010	 -0.075
 54.472	  0.035	 -0.065
 54.476	  0.060	 -0.055
 54.480	  0.070	 -0.045
 54.484	  0.080	 -0.035
 54.488	  0.095	 -0.015
 54.492	  0.110	  0.000
 54.496	  0.165	  0.010
 54.500	  0.225	  0.025
 54.504	  0.295	  0.015
 54.508	  0.365	  0.010
 54.512	  0.375	 -0.015
 54.516	  0.385	 -0.045
 54.520	  0.435	 -0.050
 54.524	  0.460	 -0.055
 54.528	  0.385	 -0.065
 54.532	  0.315	 -0.075
 54.536	  0.260	 -0.075
 54.540	  0.205	 -0.075
 54.544	  0.140	 -0.075
 54.548	  0.080	 -0.075
 54.552	  0.035	 -0.090
 54.556	 -0.005	 -0.110
 54.560	 -0.040	 -0.125
 54.564	 -0.065	 -0.135
 54.568	 -0.075	 -0.135
 54.572	 -0.085	 -0.135
 54.576	 -0.095	 -0.135
 54.580	 -0.110	 -0.135
 54.584	 -0.135	 -0.135
 54.588	 -0.150	 -0.140
 54.592	 -0.160	 -0.150
 54.596	 -0.165	 -0.150
 54.600	 -0.165	 -0.145
 54.604	 -0.165	 -0.145
 54.608	 -0.165	 -0.145
 54.612	 -0.160	 -0.140
 54.616	 -0.155	 -0.135
 54.620	 -0.155	 -0.135
 54.624	 -0.155	 -0.140
 54.628	 -0.155	 -0.145
 54.632	 -0.155	 -0.145
 54.636	 -0.165	 -0.100
 54.640	 -0.180	 -0.050
 54.644	 -0.185	 -0.025
 54.648	 -0.185	 -0.005
 54.652	  0.020	 -0.020
 54.656	  0.250	 -0.040
 54.660	  0.715	 -0.125
 54.664	  1.195	 -0.210
 54.668	  1.770	 -0.435
 54.672	  2.340	 -0.665
 54.676	  2.570	 -1.070
 54.680	  2.780	 -1.465
 54.684	  2.765	 -1.780
 54.688	  2.750	 -2.060
 54.692	  2.740	 -2.125
 54.696	  2.620	 -2.170
 54.700	  1.955	 -2.100
 54.704	  1.280	 -1.935
 54.708	  0.570	 -1.430
 54.712	  0.020	 -0.965
 54.716	 -0.100	 -0.600
 54.720	 -0.200	 -0.305
 54.724	 -0.255	 -0.150
 54.728	 -0.310	 -0.040
 54.732	 -0.360	  0.000
 54.736	 -0.405	  0.035
 54.740	 -0.445	  0.065
 54.744	 -0.470	  0.085
 54.748	 -0.485	  0.095
 54.752	 -0.495	  0.110
 54.756	 -0.500	  0.120
 54.760	 -0.505	  0.125
 54.764	 -0.505	  0.125
 54.768	 -0.505	  0.130
 54.772	 -0.510	  0.145
 54.776	 -0.515	  0.155
 54.780	 -0.515	  0.155
 54.784	 -0.510	  0.155
 54.788	 -0.505	  0.160
 54.792	 -0.505	  0.165
 54.796	 -0.505	  0.165
 54.800	 -0.500	  0.170
 54.804	 -0.495	  0.180
 54.808	 -0.490	  0.185
 54.812	 -0.485	  0.185
 54.816	 -0.485	  0.185
 54.820	 -0.485	  0.190
 54.824	 -0.485	  0.195
 54.828	 -0.485	  0.200
 54.832	 -0.485	  0.215
 54.836	 -0.485	  0.235
 54.840	 -0.490	  0.245
 54.844	 -0.490	  0.255
 54.848	 -0.485	  0.260
 54.852	 -0.485	  0.265
 54.856	 -0.495	  0.275
 54.860	 -0.505	  0.285
 54.864	 -0.515	  0.305
 54.868	 -0.525	  0.325
 54.872	 -0.540	  0.340
 54.876	 -0.560	  0.355
 54.880	 -0.580	  0.365
 54.884	 -0.600	  0.375
 54.888	 -0.630	  0.390
 54.892	 -0.660	  0.410
 54.896	 -0.685	  0.435
 54.900	 -0.715	  0.455
 54.904	 -0.745	  0.455
 54.908	 -0.775	  0.455
 54.912	 -0.800	  0.460
 54.916	 -0.815	  0.465
 54.920	 -0.830	  0.465
 54.924	 -0.825	  0.460
 54.928	 -0.815	  0.455
 54.932	 -0.795	  0.440
 54.936	 -0.765	  0.410
 54.940	 -0.725	  0.380
 54.944	 -0.680	  0.345
 54.948	 -0.620	  0.305
 54.952	 -0.550	  0.265
 54.956	 -0.490	  0.225
 54.960	 -0.425	  0.190
 54.964	 -0.370	  0.145
 54.968	 -0.315	  0.100
 54.972	 -0.265	  0.070
 54.976	 -0.220	  0.045
 54.980	 -0.190	  0.025
 54.984	 -0.165	  0.005
 54.988	 -0.145	 -0.005
 54.992	 -0.125	 -0.020
 54.996	 -0.120	 -0.025
 55.000	 -0.115	 -0.035
 55.004	 -0.105	 -0.050
 55.008	 -0.105	 -0.060
 55.012	 -0.105	 -0.055
 55.016	 -0.105	 -0.055
 55.020	 -0.105	 -0.055
 55.024	 -0.100	 -0.050
 55.028	 -0.095	 -0.045
 55.032	 -0.095	 -0.045
 55.036	 -0.095	 -0.050
 55.040	 -0.090	 -0.055
 55.044	 -0.085	 -0.055
 55.048	 -0.085	 -0.055
 55.052	 -0.085	 -0.055
 55.056	 -0.080	 -0.050
 55.060	 -0.075	 -0.045
 55.064	 -0.070	 -0.045
 55.068	 -0.060	 -0.055
 55.072	 -0.050	 -0.065
 55.076	 -0.045	 -0.065
 55.080	 -0.040	 -0.065
 55.084	 -0.035	 -0.065
 55.088	 -0.030	 -0.065
 55.092	 -0.025	 -0.065
 55.096	 -0.020	 -0.070
 55.100	 -0.015	 -0.080
 55.104	 -0.015	 -0.080
 55.108	 -0.015	 -0.075
 55.112	 -0.010	 -0.070
 55.116	 -0.005	 -0.065
 55.120	  0.010	 -0.065
 55.124	  0.035	 -0.065
 55.128	  0.055	 -0.050
 55.132	  0.070	 -0.035
 55.136	  0.075	 -0.020
 55.140	  0.080	 -0.005
 55.144	  0.125	  0.015
 55.148	  0.175	  0.040
 55.152	  0.245	  0.045
 55.156	  0.320	  0.045
 55.160	  0.325	  0.015
 55.164	  0.330	 -0.010
 55.168	  0.385	 -0.040
 55.172	  0.430	 -0.065
 55.176	  0.390	 -0.065
 55.180	  0.350	 -0.065
 55.184	  0.285	 -0.075
 55.188	  0.225	 -0.085
 55.192	  0.180	 -0.085
 55.196	  0.130	 -0.085
 55.200	  0.070	 -0.095
 55.204	  0.010	 -0.105
 55.208	 -0.035	 -0.110
 55.212	 -0.075	 -0.115
 55.216	 -0.090	 -0.125
 55.220	 -0.105	 -0.135
 55.224	 -0.125	 -0.140
 55.228	 -0.140	 -0.145
 55.232	 -0.155	 -0.145
 55.236	 -0.165	 -0.140
 55.240	 -0.170	 -0.135
 55.244	 -0.175	 -0.135
 55.248	 -0.180	 -0.140
 55.252	 -0.185	 -0.145
 55.256	 -0.190	 -0.145
 55.260	 -0.190	 -0.145
 55.264	 -0.185	 -0.150
 55.268	 -0.180	 -0.150
 55.272	 -0.175	 -0.145
 55.276	 -0.170	 -0.140
 55.280	 -0.165	 -0.135
 55.284	 -0.165	 -0.135
 55.288	 -0.165	 -0.135
 55.292	 -0.180	 -0.085
 55.296	 -0.200	 -0.015
 55.300	 -0.125	 -0.005
 55.304	 -0.020	 -0.010
 55.308	  0.370	 -0.055
 55.312	  0.825	 -0.105
 55.316	  1.385	 -0.260
 55.320	  1.960	 -0.430
 55.324	  2.360	 -0.800
 55.328	  2.750	 -1.190
 55.332	  2.755	 -1.600
 55.336	  2.740	 -2.005
 55.340	  2.730	 -2.105
 55.344	  2.680	 -2.200
 55.348	  1.965	 -2.185
 55.352	  1.255	 -2.115
 55.356	  0.570	 -1.575
 55.360	 -0.020	 -1.055
 55.364	 -0.120	 -0.635
 55.368	 -0.215	 -0.275
 55.372	 -0.275	 -0.135
 55.376	 -0.335	 -0.025
 55.380	 -0.380	  0.005
 55.384	 -0.420	  0.040
 55.388	 -0.450	  0.070
 55.392	 -0.480	  0.100
 55.396	 -0.495	  0.115
 55.400	 -0.505	  0.125
 55.404	 -0.510	  0.125
 55.408	 -0.510	  0.125
 55.412	 -0.505	  0.135
 55.416	 -0.505	  0.145
 55.420	 -0.510	  0.150
 55.424	 -0.510	  0.155
 55.428	 -0.505	  0.160
 55.432	 -0.505	  0.155
 55.436	 -0.510	  0.145
 55.440	 -0.505	  0.150
 55.444	 -0.495	  0.160
 55.448	 -0.495	  0.170
 55.452	 -0.495	  0.180
 55.456	 -0.485	  0.185
 55.460	 -0.475	  0.185
 55.464	 -0.475	  0.185
 55.468	 -0.480	  0.185
 55.472	 -0.480	  0.190
 55.476	 -0.475	  0.200
 55.480	 -0.475	  0.215
 55.484	 -0.480	  0.230
 55.488	 -0.485	  0.235
 55.492	 -0.485	  0.240
 55.496	 -0.485	  0.250
 55.500	 -0.485	  0.265
 55.504	 -0.490	  0.275
 55.508	 -0.495	  0.285
 55.512	 -0.510	  0.305
 55.516	 -0.525	  0.325
 55.520	 -0.545	  0.340
 55.524	 -0.565	  0.355
 55.528	 -0.590	  0.375
 55.532	 -0.620	  0.395
 55.536	 -0.650	  0.410
 55.540	 -0.680	  0.425
 55.544	 -0.705	  0.440
 55.548	 -0.725	  0.455
 55.552	 -0.740	  0.460
 55.556	 -0.760	  0.460
 55.560	 -0.780	  0.450
 55.564	 -0.790	  0.445
 55.568	 -0.780	  0.445
 55.572	 -0.760	  0.430
 55.576	 -0.730	  0.405
 55.580	 -0.690	  0.380
 55.584	 -0.645	  0.355
 55.588	 -0.595	  0.315
 55.592	 -0.545	  0.265
 55.596	 -0.485	  0.220
 55.600	 -0.420	  0.180
 55.604	 -0.360	  0.140
 55.608	 -0.300	  0.105
 55.612	 -0.260	  0.070
 55.616	 -0.225	  0.040
 55.620	 -0.190	  0.015
 55.624	 -0.160	 -0.005
 55.628	 -0.135	 -0.025
 55.632	 -0.115	 -0.040
 55.636	 -0.105	 -0.050
 55.640	 -0.095	 -0.060
 55.644	 -0.095	 -0.065
 55.648	 -0.095	 -0.070
 55.652	 -0.095	 -0.075
 55.656	 -0.100	 -0.080
 55.660	 -0.105	 -0.085
 55.664	 -0.105	 -0.085
 55.668	 -0.095	 -0.085
 55.672	 -0.090	 -0.080
 55.676	 -0.085	 -0.075
 55.680	 -0.085	 -0.075
 55.684	 -0.090	 -0.080
 55.688	 -0.090	 -0.085
 55.692	 -0.080	 -0.085
 55.696	 -0.070	 -0.085
 55.700	 -0.065	 -0.085
 55.704	 -0.060	 -0.085
 55.708	 -0.050	 -0.085
 55.712	 -0.045	 -0.085
 55.716	 -0.045	 -0.090
 55.720	 -0.040	 -0.095
 55.724	 -0.030	 -0.095
 55.728	 -0.025	 -0.095
 55.732	 -0.025	 -0.095
 55.736	 -0.020	 -0.090
 55.740	 -0.015	 -0.085
 55.744	 -0.010	 -0.085
 55.748	 -0.005	 -0.090
 55.752	  0.000	 -0.100
 55.756	  0.000	 -0.110
 55.760	  0.005	 -0.110
 55.764	  0.010	 -0.105
 55.768	  0.025	 -0.095
 55.772	  0.045	 -0.085
 55.776	  0.060	 -0.075
 55.780	  0.080	 -0.065
 55.784	  0.085	 -0.065
 55.788	  0.090	 -0.065
 55.792	  0.125	 -0.040
 55.796	  0.170	 -0.010
 55.800	  0.245	  0.000
 55.804	  0.330	  0.010
 55.808	  0.345	 -0.005
 55.812	  0.350	 -0.030
 55.816	  0.405	 -0.060
 55.820	  0.470	 -0.090
 55.824	  0.435	 -0.095
 55.828	  0.395	 -0.100
 55.832	  0.330	 -0.105
 55.836	  0.260	 -0.105
 55.840	  0.215	 -0.110
 55.844	  0.170	 -0.115
 55.848	  0.105	 -0.125
 55.852	  0.045	 -0.135
 55.856	  0.000	 -0.145
 55.860	 -0.035	 -0.155
 55.864	 -0.045	 -0.155
 55.868	 -0.055	 -0.155
 55.872	 -0.070	 -0.165
 55.876	 -0.085	 -0.175
 55.880	 -0.095	 -0.175
 55.884	 -0.105	 -0.175
 55.888	 -0.115	 -0.180
 55.892	 -0.125	 -0.180
 55.896	 -0.125	 -0.175
 55.900	 -0.125	 -0.175
 55.904	 -0.130	 -0.175
 55.908	 -0.130	 -0.175
 55.912	 -0.125	 -0.175
 55.916	 -0.125	 -0.175
 55.920	 -0.140	 -0.175
 55.924	 -0.135	 -0.170
 55.928	 -0.125	 -0.165
 55.932	 -0.125	 -0.165
 55.936	 -0.125	 -0.165
 55.940	 -0.125	 -0.145
 55.944	 -0.125	 -0.115
 55.948	 -0.110	 -0.080
 55.952	 -0.095	 -0.045
 55.956	  0.110	 -0.045
 55.960	  0.395	 -0.060
 55.964	  0.845	 -0.125
 55.968	  1.350	 -0.205
 55.972	  1.875	 -0.405
 55.976	  2.410	 -0.630
 55.980	  2.610	 -1.035
 55.984	  2.760	 -1.470
 55.988	  2.765	 -1.775
 55.992	  2.755	 -2.070
 55.996	  2.730	 -2.140
 56.000	  2.705	 -2.205
 56.004	  1.775	 -2.105
 56.008	  0.870	 -1.990
 56.012	  0.430	 -1.455
 56.016	  0.020	 -0.940
 56.020	 -0.080	 -0.585
 56.024	 -0.180	 -0.265
 56.028	 -0.230	 -0.155
 56.032	 -0.280	 -0.055
 56.036	 -0.325	 -0.020
 56.040	 -0.370	  0.005
 56.044	 -0.400	  0.030
 56.048	 -0.425	  0.050
 56.052	 -0.440	  0.070
 56.056	 -0.455	  0.085
 56.060	 -0.455	  0.085
 56.064	 -0.455	  0.085
 56.068	 -0.455	  0.095
 56.072	 -0.450	  0.105
 56.076	 -0.445	  0.110
 56.080	 -0.445	  0.115
 56.084	 -0.445	  0.120
 56.088	 -0.445	  0.125
 56.092	 -0.445	  0.125
 56.096	 -0.440	  0.125
 56.100	 -0.435	  0.130
 56.104	 -0.435	  0.135
 56.108	 -0.435	  0.140
 56.112	 -0.430	  0.150
 56.116	 -0.425	  0.160
 56.120	 -0.425	  0.165
 56.124	 -0.430	  0.165
 56.128	 -0.430	  0.165
 56.132	 -0.425	  0.165
 56.136	 -0.425	  0.180
 56.140	 -0.425	  0.200
 56.144	 -0.425	  0.210
 56.148	 -0.425	  0.220
 56.152	 -0.430	  0.230
 56.156	 -0.440	  0.240
 56.160	 -0.455	  0.255
 56.164	 -0.470	  0.270
 56.168	 -0.495	  0.295
 56.172	 -0.515	  0.315
 56.176	 -0.535	  0.335
 56.180	 -0.555	  0.355
 56.184	 -0.590	  0.370
 56.188	 -0.625	  0.385
 56.192	 -0.645	  0.400
 56.196	 -0.670	  0.415
 56.200	 -0.700	  0.430
 56.204	 -0.730	  0.445
 56.208	 -0.755	  0.445
 56.212	 -0.775	  0.440
 56.216	 -0.785	  0.435
 56.220	 -0.785	  0.430
 56.224	 -0.750	  0.410
 56.228	 -0.715	  0.390
 56.232	 -0.670	  0.360
 56.236	 -0.620	  0.330
 56.240	 -0.555	  0.290
 56.244	 -0.495	  0.250
 56.248	 -0.435	  0.205
 56.252	 -0.370	  0.165
 56.256	 -0.310	  0.130
 56.260	 -0.255	  0.095
 56.264	 -0.205	  0.055
 56.268	 -0.160	  0.025
 56.272	 -0.125	  0.000
 56.276	 -0.095	 -0.015
 56.280	 -0.070	 -0.035
 56.284	 -0.055	 -0.050
 56.288	 -0.045	 -0.060
 56.292	 -0.040	 -0.065
 56.296	 -0.035	 -0.065
 56.300	 -0.035	 -0.065
 56.304	 -0.035	 -0.070
 56.308	 -0.035	 -0.075
 56.312	 -0.040	 -0.075
 56.316	 -0.035	 -0.075
 56.320	 -0.025	 -0.080
 56.324	 -0.025	 -0.080
 56.328	 -0.025	 -0.075
 56.332	 -0.020	 -0.075
 56.336	 -0.015	 -0.075
 56.340	 -0.015	 -0.080
 56.344	 -0.010	 -0.080
 56.348	  0.000	 -0.075
 56.352	  0.005	 -0.070
 56.356	  0.005	 -0.065
 56.360	  0.005	 -0.065
 56.364	  0.015	 -0.070
 56.368	  0.025	 -0.075
 56.372	  0.025	 -0.080
 56.376	  0.025	 -0.085
 56.380	  0.040	 -0.085
 56.384	  0.055	 -0.085
 56.388	  0.060	 -0.085
 56.392	  0.060	 -0.085
 56.396	  0.055	 -0.090
 56.400	  0.055	 -0.095
 56.404	  0.065	 -0.095
 56.408	  0.075	 -0.090
 56.412	  0.085	 -0.085
 56.416	  0.105	 -0.075
 56.420	  0.130	 -0.060
 56.424	  0.145	 -0.050
 56.428	  0.145	 -0.045
 56.432	  0.170	 -0.035
 56.436	  0.215	 -0.020
 56.440	  0.275	  0.000
 56.444	  0.350	  0.015
 56.448	  0.385	  0.015
 56.452	  0.400	  0.005
 56.456	  0.430	 -0.015
 56.460	  0.475	 -0.045
 56.464	  0.485	 -0.060
 56.468	  0.490	 -0.070
 56.472	  0.435	 -0.080
 56.476	  0.365	 -0.090
 56.480	  0.310	 -0.090
 56.484	  0.255	 -0.085
 56.488	  0.190	 -0.085
 56.492	  0.125	 -0.085
 56.496	  0.085	 -0.100
 56.500	  0.045	 -0.125
 56.504	  0.020	 -0.135
 56.508	  0.000	 -0.140
 56.512	 -0.005	 -0.135
 56.516	 -0.015	 -0.135
 56.520	 -0.030	 -0.140
 56.524	 -0.045	 -0.145
 56.528	 -0.055	 -0.145
 56.532	 -0.065	 -0.145
 56.536	 -0.070	 -0.145
 56.540	 -0.075	 -0.145
 56.544	 -0.080	 -0.145
 56.548	 -0.085	 -0.145
 56.552	 -0.090	 -0.145
 56.556	 -0.095	 -0.145
 56.560	 -0.095	 -0.145
 56.564	 -0.090	 -0.145
 56.568	 -0.080	 -0.150
 56.572	 -0.070	 -0.155
 56.576	 -0.065	 -0.155
 56.580	 -0.065	 -0.145
 56.584	 -0.070	 -0.130
 56.588	 -0.085	 -0.095
 56.592	 -0.105	 -0.035
 56.596	 -0.030	 -0.020
 56.600	  0.105	 -0.035
 56.604	  0.420	 -0.060
 56.608	  0.845	 -0.085
 56.612	  1.360	 -0.180
 56.616	  1.915	 -0.315
 56.620	  2.325	 -0.565
 56.624	  2.675	 -0.865
 56.628	  2.760	 -1.255
 56.632	  2.755	 -1.670
 56.636	  2.745	 -1.880
 56.640	  2.735	 -2.040
 56.644	  2.335	 -2.090
 56.648	  1.865	 -2.120
 56.652	  1.075	 -1.735
 56.656	  0.245	 -1.300
 56.660	  0.070	 -0.895
 56.664	 -0.060	 -0.490
 56.668	 -0.125	 -0.290
 56.672	 -0.185	 -0.100
 56.676	 -0.230	 -0.040
 56.680	 -0.275	  0.015
 56.684	 -0.315	  0.040
 56.688	 -0.355	  0.065
 56.692	 -0.375	  0.075
 56.696	 -0.395	  0.085
 56.700	 -0.400	  0.100
 56.704	 -0.405	  0.115
 56.708	 -0.410	  0.120
 56.712	 -0.415	  0.125
 56.716	 -0.420	  0.130
 56.720	 -0.420	  0.135
 56.724	 -0.415	  0.135
 56.728	 -0.415	  0.135
 56.732	 -0.415	  0.145
 56.736	 -0.410	  0.155
 56.740	 -0.405	  0.160
 56.744	 -0.400	  0.165
 56.748	 -0.395	  0.170
 56.752	 -0.395	  0.170
 56.756	 -0.395	  0.165
 56.760	 -0.390	  0.170
 56.764	 -0.385	  0.180
 56.768	 -0.385	  0.190
 56.772	 -0.385	  0.200
 56.776	 -0.385	  0.205
 56.780	 -0.390	  0.210
 56.784	 -0.395	  0.220
 56.788	 -0.395	  0.230
 56.792	 -0.400	  0.245
 56.796	 -0.410	  0.260
 56.800	 -0.415	  0.275
 56.804	 -0.420	  0.290
 56.808	 -0.440	  0.300
 56.812	 -0.460	  0.310
 56.816	 -0.480	  0.325
 56.820	 -0.500	  0.340
 56.824	 -0.530	  0.360
 56.828	 -0.560	  0.380
 56.832	 -0.595	  0.395
 56.836	 -0.635	  0.415
 56.840	 -0.675	  0.425
 56.844	 -0.715	  0.435
 56.848	 -0.735	  0.440
 56.852	 -0.755	  0.445
 56.856	 -0.780	  0.450
 56.860	 -0.805	  0.450
 56.864	 -0.805	  0.445
 56.868	 -0.795	  0.435
 56.872	 -0.770	  0.410
 56.876	 -0.740	  0.385
 56.880	 -0.690	  0.360
 56.884	 -0.630	  0.330
 56.888	 -0.560	  0.295
 56.892	 -0.490	  0.260
 56.896	 -0.430	  0.215
 56.900	 -0.370	  0.180
 56.904	 -0.305	  0.145
 56.908	 -0.245	  0.110
 56.912	 -0.185	  0.080
 56.916	 -0.135	  0.050
 56.920	 -0.100	  0.025
 56.924	 -0.075	  0.005
 56.928	 -0.060	 -0.005
 56.932	 -0.045	 -0.020
 56.936	 -0.035	 -0.035
 56.940	 -0.025	 -0.045
 56.944	 -0.015	 -0.050
 56.948	 -0.010	 -0.050
 56.952	 -0.005	 -0.045
 56.956	 -0.005	 -0.045
 56.960	 -0.010	 -0.050
 56.964	 -0.015	 -0.055
 56.968	 -0.015	 -0.055
 56.972	 -0.015	 -0.055
 56.976	 -0.015	 -0.055
 56.980	 -0.005	 -0.050
 56.984	  0.000	 -0.045
 56.988	  0.005	 -0.045
 56.992	  0.005	 -0.050
 56.996	  0.005	 -0.055
 57.000	  0.005	 -0.055
 57.004	  0.015	 -0.060
 57.008	  0.025	 -0.060
 57.012	  0.030	 -0.055
 57.016	  0.035	 -0.055
 57.020	  0.040	 -0.060
 57.024	  0.045	 -0.065
 57.028	  0.050	 -0.070
 57.032	  0.055	 -0.070
 57.036	  0.055	 -0.065
 57.040	  0.055	 -0.065
 57.044	  0.060	 -0.070
 57.048	  0.065	 -0.075
 57.052	  0.065	 -0.075
 57.056	  0.070	 -0.070
 57.060	  0.090	 -0.065
 57.064	  0.110	 -0.060
 57.068	  0.130	 -0.050
 57.072	  0.145	 -0.035
 57.076	  0.150	 -0.020
 57.080	  0.170	 -0.005
 57.084	  0.215	  0.005
 57.088	  0.265	  0.015
 57.092	  0.335	  0.020
 57.096	  0.365	  0.015
 57.100	  0.370	  0.005
 57.104	  0.405	 -0.010
 57.108	  0.465	 -0.040
 57.112	  0.460	 -0.055
 57.116	  0.430	 -0.060
 57.120	  0.375	 -0.070
 57.124	  0.310	 -0.080
 57.128	  0.260	 -0.085
 57.132	  0.210	 -0.085
 57.136	  0.155	 -0.085
 57.140	  0.090	 -0.090
 57.144	  0.050	 -0.100
 57.148	  0.005	 -0.110
 57.152	 -0.015	 -0.115
 57.156	 -0.040	 -0.120
 57.160	 -0.045	 -0.125
 57.164	 -0.050	 -0.130
 57.168	 -0.070	 -0.135
 57.172	 -0.085	 -0.135
 57.176	 -0.090	 -0.135
 57.180	 -0.095	 -0.135
 57.184	 -0.105	 -0.140
 57.188	 -0.115	 -0.145
 57.192	 -0.115	 -0.145
 57.196	 -0.115	 -0.140
 57.200	 -0.115	 -0.135
 57.204	 -0.110	 -0.135
 57.208	 -0.105	 -0.135
 57.212	 -0.105	 -0.135
 57.216	 -0.105	 -0.135
 57.220	 -0.100	 -0.135
 57.224	 -0.095	 -0.140
 57.228	 -0.100	 -0.125
 57.232	 -0.120	 -0.080
 57.236	 -0.120	 -0.045
 57.240	 -0.080	 -0.025
 57.244	  0.075	 -0.020
 57.248	  0.395	 -0.035
 57.252	  0.815	 -0.090
 57.256	  1.335	 -0.190
 57.260	  1.845	 -0.345
 57.264	  2.340	 -0.555
 57.268	  2.600	 -0.890
 57.272	  2.700	 -1.305
 57.276	  2.725	 -1.645
 57.280	  2.715	 -1.950
 57.284	  2.715	 -2.080
 57.288	  2.715	 -2.130
 57.292	  2.030	 -2.095
 57.296	  1.105	 -2.035
 57.300	  0.530	 -1.605
 57.304	  0.055	 -1.075
 57.308	 -0.095	 -0.690
 57.312	 -0.180	 -0.335
 57.316	 -0.235	 -0.180
 57.320	 -0.280	 -0.055
 57.324	 -0.330	  0.000
 57.328	 -0.380	  0.040
 57.332	 -0.405	  0.065
 57.336	 -0.435	  0.095
 57.340	 -0.455	  0.105
 57.344	 -0.475	  0.115
 57.348	 -0.475	  0.120
 57.352	 -0.475	  0.125
 57.356	 -0.480	  0.135
 57.360	 -0.485	  0.145
 57.364	 -0.485	  0.150
 57.368	 -0.485	  0.155
 57.372	 -0.485	  0.155
 57.376	 -0.485	  0.155
 57.380	 -0.485	  0.160
 57.384	 -0.480	  0.165
 57.388	 -0.470	  0.165
 57.392	 -0.465	  0.165
 57.396	 -0.470	  0.175
 57.400	 -0.475	  0.185
 57.404	 -0.475	  0.185
 57.408	 -0.470	  0.185
 57.412	 -0.465	  0.195
 57.416	 -0.465	  0.205
 57.420	 -0.465	  0.210
 57.424	 -0.465	  0.220
 57.428	 -0.465	  0.235
 57.432	 -0.470	  0.245
 57.436	 -0.480	  0.245
 57.440	 -0.485	  0.250
 57.444	 -0.485	  0.260
 57.448	 -0.485	  0.275
 57.452	 -0.490	  0.295
 57.456	 -0.505	  0.315
 57.460	 -0.520	  0.330
 57.464	 -0.540	  0.345
 57.468	 -0.570	  0.360
 57.472	 -0.590	  0.375
 57.476	 -0.610	  0.390
 57.480	 -0.645	  0.400
 57.484	 -0.680	  0.410
 57.488	 -0.710	  0.430
 57.492	 -0.740	  0.450
 57.496	 -0.775	  0.460
 57.500	 -0.815	  0.475
 57.504	 -0.825	  0.475
 57.508	 -0.835	  0.470
 57.512	 -0.835	  0.465
 57.516	 -0.830	  0.460
 57.520	 -0.805	  0.445
 57.524	 -0.775	  0.430
 57.528	 -0.735	  0.405
 57.532	 -0.690	  0.375
 57.536	 -0.630	  0.330
 57.540	 -0.570	  0.285
 57.544	 -0.505	  0.250
 57.548	 -0.445	  0.210
 57.552	 -0.375	  0.170
 57.556	 -0.315	  0.130
 57.560	 -0.270	  0.100
 57.564	 -0.225	  0.075
 57.568	 -0.185	  0.045
 57.572	 -0.155	  0.020
 57.576	 -0.135	  0.000
 57.580	 -0.120	 -0.015
 57.584	 -0.105	 -0.020
 57.588	 -0.095	 -0.025
 57.592	 -0.085	 -0.030
 57.596	 -0.080	 -0.040
 57.600	 -0.075	 -0.050
 57.604	 -0.075	 -0.050
 57.608	 -0.080	 -0.045
 57.612	 -0.080	 -0.040
 57.616	 -0.075	 -0.035
 57.620	 -0.070	 -0.035
 57.624	 -0.065	 -0.040
 57.628	 -0.065	 -0.045
 57.632	 -0.065	 -0.045
 57.636	 -0.060	 -0.045
 57.640	 -0.055	 -0.045
 57.644	 -0.050	 -0.040
 57.648	 -0.045	 -0.035
 57.652	 -0.040	 -0.035
 57.656	 -0.035	 -0.035
 57.660	 -0.030	 -0.035
 57.664	 -0.025	 -0.040
 57.668	 -0.015	 -0.045
 57.672	 -0.010	 -0.045
 57.676	 -0.005	 -0.045
 57.680	  0.000	 -0.045
 57.684	  0.000	 -0.050
 57.688	  0.005	 -0.055
 57.692	  0.010	 -0.055
 57.696	  0.015	 -0.055
 57.700	  0.020	 -0.060
 57.704	  0.025	 -0.060
 57.708	  0.025	 -0.055
 57.712	  0.030	 -0.050
 57.716	  0.050	 -0.045
 57.720	  0.070	 -0.040
 57.724	  0.090	 -0.030
 57.728	  0.105	 -0.020
 57.732	  0.110	 -0.010
 57.736	  0.135	  0.005
 57.740	  0.190	  0.030
 57.744	  0.255	  0.045
 57.748	  0.325	  0.050
 57.752	  0.365	  0.040
 57.756	  0.370	  0.015
 57.760	  0.405	 -0.005
 57.764	  0.460	 -0.030
 57.768	  0.445	 -0.045
 57.772	  0.385	 -0.045
 57.776	  0.320	 -0.050
 57.780	  0.255	 -0.060
 57.784	  0.195	 -0.060
 57.788	  0.145	 -0.055
 57.792	  0.090	 -0.060
 57.796	  0.035	 -0.070
 57.800	  0.000	 -0.085
 57.804	 -0.035	 -0.100
 57.808	 -0.055	 -0.105
 57.812	 -0.070	 -0.110
 57.816	 -0.080	 -0.115
 57.820	 -0.090	 -0.120
 57.824	 -0.100	 -0.115
 57.828	 -0.110	 -0.105
 57.832	 -0.115	 -0.110
 57.836	 -0.125	 -0.125
 57.840	 -0.135	 -0.125
 57.844	 -0.145	 -0.125
 57.848	 -0.145	 -0.125
 57.852	 -0.140	 -0.120
 57.856	 -0.135	 -0.115
 57.860	 -0.135	 -0.115
 57.864	 -0.135	 -0.115
 57.868	 -0.130	 -0.115
 57.872	 -0.125	 -0.120
 57.876	 -0.125	 -0.120
 57.880	 -0.125	 -0.110
 57.884	 -0.125	 -0.080
 57.888	 -0.130	 -0.010
 57.892	 -0.090	  0.030
 57.896	  0.030	  0.025
 57.900	  0.260	  0.005
 57.904	  0.665	 -0.035
 57.908	  1.135	 -0.125
 57.912	  1.695	 -0.260
 57.916	  2.180	 -0.485
 57.920	  2.585	 -0.795
 57.924	  2.765	 -1.170
 57.928	  2.755	 -1.600
 57.932	  2.745	 -1.875
 57.936	  2.735	 -2.040
 57.940	  2.575	 -2.125
 57.944	  2.315	 -2.160
 57.948	  1.580	 -1.990
 57.952	  0.605	 -1.720
 57.956	  0.175	 -1.290
 57.960	 -0.040	 -0.800
 57.964	 -0.150	 -0.465
 57.968	 -0.230	 -0.175
 57.972	 -0.270	 -0.055
 57.976	 -0.305	  0.020
 57.980	 -0.355	  0.060
 57.984	 -0.410	  0.090
 57.988	 -0.430	  0.115
 57.992	 -0.450	  0.140
 57.996	 -0.465	  0.145