  0.0000000e+000  4.9950000e+000  4.3400000e+000
  3.0000000e-003  4.9950000e+000  4.3400000e+000
  6.0000000e-003  4.9950000e+000  4.3400000e+000
  8.0000000e-003  4.9950000e+000  4.3400000e+000
  1.1000000e-002  4.9950000e+000  4.3400000e+000
  1.4000000e-002  4.9950000e+000  4.3400000e+000
  1.7000000e-002  4.9950000e+000  4.3400000e+000
  1.9000000e-002  4.9950000e+000  4.3200000e+000
  2.2000000e-002  4.9850000e+000  4.3100000e+000
  2.5000000e-002  4.9950000e+000  4.2800000e+000
  2.8000000e-002  4.9950000e+000  4.2900000e+000
  3.1000000e-002  5.0000000e+000  4.3000000e+000
  3.3000000e-002  5.0250000e+000  4.3050000e+000
  3.6000000e-002  5.0350000e+000  4.3100000e+000
  3.9000000e-002  5.0150000e+000  4.3200000e+000
  4.2000000e-002  4.9500000e+000  4.3050000e+000
  4.4000000e-002  4.8950000e+000  4.2850000e+000
  4.7000000e-002  4.8650000e+000  4.2800000e+000
  5.0000000e-002  4.8400000e+000  4.3000000e+000
  5.3000000e-002  4.8250000e+000  4.3100000e+000
  5.6000000e-002  4.7800000e+000  4.2950000e+000
  5.8000000e-002  4.7250000e+000  4.2700000e+000
  6.1000000e-002  4.7100000e+000  4.2600000e+000
  6.4000000e-002  4.7150000e+000  4.2750000e+000
  6.7000000e-002  4.7400000e+000  4.2800000e+000
  6.9000000e-002  4.7500000e+000  4.2750000e+000
  7.2000000e-002  4.7300000e+000  4.2700000e+000
  7.5000000e-002  4.7100000e+000  4.2550000e+000
  7.8000000e-002  4.6950000e+000  4.2450000e+000
  8.1000000e-002  4.7000000e+000  4.2650000e+000
  8.3000000e-002  4.7150000e+000  4.2700000e+000
  8.6000000e-002  4.7500000e+000  4.2650000e+000
  8.9000000e-002  4.7450000e+000  4.2650000e+000
  9.2000000e-002  4.7300000e+000  4.2700000e+000
  9.4000000e-002  4.7100000e+000  4.2550000e+000
  9.7000000e-002  4.7150000e+000  4.2550000e+000
  1.0000000e-001  4.7250000e+000  4.2650000e+000
  1.0300000e-001  4.7450000e+000  4.2700000e+000
  1.0600000e-001  4.7300000e+000  4.2750000e+000
  1.0800000e-001  4.7250000e+000  4.2750000e+000
  1.1100000e-001  4.7250000e+000  4.2600000e+000
  1.1400000e-001  4.7250000e+000  4.2700000e+000
  1.1700000e-001  4.7350000e+000  4.2800000e+000
  1.1900000e-001  4.7400000e+000  4.2900000e+000
  1.2200000e-001  4.7350000e+000  4.2800000e+000
  1.2500000e-001  4.7200000e+000  4.2650000e+000
  1.2800000e-001  4.7150000e+000  4.2600000e+000
  1.3100000e-001  4.7150000e+000  4.2650000e+000
  1.3300000e-001  4.7150000e+000  4.2650000e+000
  1.3600000e-001  4.7050000e+000  4.2650000e+000
  1.3900000e-001  4.6850000e+000  4.2650000e+000
  1.4200000e-001  4.6950000e+000  4.2500000e+000
  1.4400000e-001  4.6950000e+000  4.2500000e+000
  1.4700000e-001  4.7300000e+000  4.2650000e+000
  1.5000000e-001  4.7450000e+000  4.2750000e+000
  1.5300000e-001  4.7550000e+000  4.2900000e+000
  1.5600000e-001  4.7500000e+000  4.3050000e+000
  1.5800000e-001  4.7550000e+000  4.2950000e+000
  1.6100000e-001  4.7400000e+000  4.2850000e+000
  1.6400000e-001  4.7150000e+000  4.2650000e+000
  1.6700000e-001  4.7150000e+000  4.2150000e+000
  1.6900000e-001  4.7300000e+000  4.1700000e+000
  1.7200000e-001  4.7550000e+000  4.0750000e+000
  1.7500000e-001  4.7900000e+000  3.9800000e+000
  1.7800000e-001  4.8000000e+000  3.8600000e+000
  1.8100000e-001  4.8250000e+000  3.6850000e+000
  1.8300000e-001  4.8500000e+000  3.4500000e+000
  1.8600000e-001  4.8400000e+000  3.2000000e+000
  1.8900000e-001  4.7800000e+000  3.0250000e+000
  1.9200000e-001  4.6800000e+000  2.9500000e+000
  1.9400000e-001  4.6100000e+000  2.9500000e+000
  1.9700000e-001  4.6000000e+000  2.9950000e+000
  2.0000000e-001  4.6100000e+000  3.0400000e+000
  2.0300000e-001  4.6100000e+000  3.0650000e+000
  2.0600000e-001  4.5850000e+000  3.0900000e+000
  2.0800000e-001  4.5800000e+000  3.1250000e+000
  2.1100000e-001  4.5350000e+000  3.1650000e+000
  2.1400000e-001  4.4950000e+000  3.1900000e+000
  2.1700000e-001  4.4800000e+000  3.2300000e+000
  2.1900000e-001  4.4700000e+000  3.2600000e+000
  2.2200000e-001  4.4350000e+000  3.2850000e+000
  2.2500000e-001  4.3900000e+000  3.3100000e+000
  2.2800000e-001  4.3400000e+000  3.3550000e+000
  2.3100000e-001  4.2850000e+000  3.4100000e+000
  2.3300000e-001  4.2350000e+000  3.4550000e+000
  2.3600000e-001  4.2050000e+000  3.4950000e+000
  2.3900000e-001  4.1800000e+000  3.5200000e+000
  2.4200000e-001  4.1450000e+000  3.5350000e+000
  2.4400000e-001  4.1400000e+000  3.5900000e+000
  2.4700000e-001  4.1800000e+000  3.6750000e+000
  2.5000000e-001  4.2050000e+000  3.7600000e+000
  2.5300000e-001  4.2250000e+000  3.8500000e+000
  2.5600000e-001  4.2300000e+000  3.9250000e+000
  2.5800000e-001  4.2900000e+000  3.9800000e+000
  2.6100000e-001  4.3600000e+000  4.0250000e+000
  2.6400000e-001  4.4200000e+000  4.0950000e+000
  2.6700000e-001  4.4950000e+000  4.1650000e+000
  2.6900000e-001  4.5400000e+000  4.2350000e+000
  2.7200000e-001  4.5750000e+000  4.2800000e+000
  2.7500000e-001  4.6150000e+000  4.3000000e+000
  2.7800000e-001  4.6350000e+000  4.3500000e+000
  2.8100000e-001  4.6750000e+000  4.3950000e+000
  2.8300000e-001  4.7250000e+000  4.4500000e+000
  2.8600000e-001  4.7500000e+000  4.4650000e+000
  2.8900000e-001  4.7500000e+000  4.4800000e+000
  2.9200000e-001  4.7600000e+000  4.4750000e+000
  2.9400000e-001  4.7600000e+000  4.4800000e+000
  2.9700000e-001  4.7650000e+000  4.5050000e+000
  3.0000000e-001  4.7950000e+000  4.5250000e+000
  3.0300000e-001  4.8050000e+000  4.5350000e+000
  3.0600000e-001  4.8000000e+000  4.5400000e+000
  3.0800000e-001  4.7750000e+000  4.5250000e+000
  3.1100000e-001  4.7750000e+000  4.5400000e+000
  3.1400000e-001  4.7900000e+000  4.5400000e+000
  3.1700000e-001  4.8200000e+000  4.5550000e+000
  3.1900000e-001  4.8350000e+000  4.5650000e+000
  3.2200000e-001  4.8200000e+000  4.5650000e+000
  3.2500000e-001  4.8300000e+000  4.5750000e+000
  3.2800000e-001  4.8250000e+000  4.5750000e+000
  3.3100000e-001  4.8200000e+000  4.5800000e+000
  3.3300000e-001  4.8300000e+000  4.6050000e+000
  3.3600000e-001  4.8400000e+000  4.6100000e+000
  3.3900000e-001  4.8350000e+000  4.6050000e+000
  3.4200000e-001  4.8000000e+000  4.5900000e+000
  3.4400000e-001  4.8000000e+000  4.5950000e+000
  3.4700000e-001  4.8100000e+000  4.6100000e+000
  3.5000000e-001  4.8250000e+000  4.6350000e+000
  3.5300000e-001  4.8350000e+000  4.6350000e+000
  3.5600000e-001  4.8450000e+000  4.6450000e+000
  3.5800000e-001  4.8350000e+000  4.6350000e+000
  3.6100000e-001  4.8300000e+000  4.6350000e+000
  3.6400000e-001  4.8250000e+000  4.6450000e+000
  3.6700000e-001  4.8350000e+000  4.6550000e+000
  3.6900000e-001  4.8350000e+000  4.6450000e+000
  3.7200000e-001  4.8300000e+000  4.6450000e+000
  3.7500000e-001  4.8350000e+000  4.6350000e+000
  3.7800000e-001  4.8450000e+000  4.6450000e+000
  3.8100000e-001  4.8400000e+000  4.6550000e+000
  3.8300000e-001  4.8500000e+000  4.6650000e+000
  3.8600000e-001  4.8600000e+000  4.6700000e+000
  3.8900000e-001  4.8500000e+000  4.6700000e+000
  3.9200000e-001  4.8500000e+000  4.6500000e+000
  3.9400000e-001  4.8450000e+000  4.6500000e+000
  3.9700000e-001  4.8600000e+000  4.6650000e+000
  4.0000000e-001  4.8800000e+000  4.6850000e+000
  4.0300000e-001  4.8950000e+000  4.6950000e+000
  4.0600000e-001  4.8800000e+000  4.6900000e+000
  4.0800000e-001  4.8550000e+000  4.6850000e+000
  4.1100000e-001  4.8400000e+000  4.6650000e+000
  4.1400000e-001  4.8450000e+000  4.6850000e+000
  4.1700000e-001  4.8800000e+000  4.6900000e+000
  4.1900000e-001  4.9000000e+000  4.6950000e+000
  4.2200000e-001  4.9000000e+000  4.6900000e+000
  4.2500000e-001  4.8950000e+000  4.6800000e+000
  4.2800000e-001  4.8800000e+000  4.6850000e+000
  4.3100000e-001  4.9000000e+000  4.6900000e+000
  4.3300000e-001  4.9200000e+000  4.7050000e+000
  4.3600000e-001  4.9300000e+000  4.7050000e+000
  4.3900000e-001  4.9350000e+000  4.7050000e+000
  4.4200000e-001  4.9000000e+000  4.6850000e+000
  4.4400000e-001  4.8750000e+000  4.6900000e+000
  4.4700000e-001  4.8950000e+000  4.7000000e+000
  4.5000000e-001  4.9250000e+000  4.7100000e+000
  4.5300000e-001  4.9350000e+000  4.7150000e+000
  4.5600000e-001  4.9550000e+000  4.7150000e+000
  4.5800000e-001  4.9400000e+000  4.7000000e+000
  4.6100000e-001  4.9300000e+000  4.6950000e+000
  4.6400000e-001  4.9350000e+000  4.7050000e+000
  4.6700000e-001  4.9400000e+000  4.7200000e+000
  4.6900000e-001  4.9550000e+000  4.7250000e+000
  4.7200000e-001  4.9500000e+000  4.7250000e+000
  4.7500000e-001  4.9650000e+000  4.7050000e+000
  4.7800000e-001  4.9600000e+000  4.7050000e+000
  4.8100000e-001  4.9450000e+000  4.6950000e+000
  4.8300000e-001  4.9450000e+000  4.7000000e+000
  4.8600000e-001  4.9750000e+000  4.6950000e+000
  4.8900000e-001  4.9500000e+000  4.6850000e+000
  4.9200000e-001  4.9600000e+000  4.6800000e+000
  4.9400000e-001  4.9550000e+000  4.6700000e+000
  4.9700000e-001  4.9550000e+000  4.6650000e+000
  5.0000000e-001  4.9600000e+000  4.6800000e+000
  5.0300000e-001  4.9650000e+000  4.6750000e+000
  5.0600000e-001  4.9550000e+000  4.6850000e+000
  5.0800000e-001  4.9500000e+000  4.6650000e+000
  5.1100000e-001  4.9300000e+000  4.6450000e+000
  5.1400000e-001  4.9250000e+000  4.6450000e+000
  5.1700000e-001  4.9250000e+000  4.6500000e+000
  5.1900000e-001  4.9400000e+000  4.6400000e+000
  5.2200000e-001  4.9400000e+000  4.6250000e+000
  5.2500000e-001  4.9200000e+000  4.6200000e+000
  5.2800000e-001  4.9200000e+000  4.6100000e+000
  5.3100000e-001  4.9150000e+000  4.6300000e+000
  5.3300000e-001  4.9200000e+000  4.6200000e+000
  5.3600000e-001  4.9300000e+000  4.6050000e+000
  5.3900000e-001  4.9300000e+000  4.5950000e+000
  5.4200000e-001  4.9200000e+000  4.5700000e+000
  5.4400000e-001  4.8900000e+000  4.5600000e+000
  5.4700000e-001  4.8950000e+000  4.5500000e+000
  5.5000000e-001  4.9100000e+000  4.5600000e+000
  5.5300000e-001  4.9050000e+000  4.5550000e+000
  5.5600000e-001  4.9150000e+000  4.5550000e+000
  5.5800000e-001  4.9050000e+000  4.5550000e+000
  5.6100000e-001  4.8900000e+000  4.5450000e+000
  5.6400000e-001  4.8600000e+000  4.5500000e+000
  5.6700000e-001  4.8650000e+000  4.5600000e+000
  5.6900000e-001  4.8700000e+000  4.5500000e+000
  5.7200000e-001  4.8800000e+000  4.5400000e+000
  5.7500000e-001  4.8750000e+000  4.5400000e+000
  5.7800000e-001  4.8700000e+000  4.5400000e+000
  5.8100000e-001  4.8550000e+000  4.5400000e+000
  5.8300000e-001  4.8500000e+000  4.5600000e+000
  5.8600000e-001  4.8650000e+000  4.5650000e+000
  5.8900000e-001  4.8550000e+000  4.5550000e+000
  5.9200000e-001  4.8550000e+000  4.5450000e+000
  5.9400000e-001  4.8500000e+000  4.5400000e+000
  5.9700000e-001  4.8400000e+000  4.5550000e+000
  6.0000000e-001  4.8600000e+000  4.5750000e+000
  6.0300000e-001  4.8650000e+000  4.5750000e+000
  6.0600000e-001  4.8600000e+000  4.5750000e+000
  6.0800000e-001  4.8500000e+000  4.5550000e+000
  6.1100000e-001  4.8450000e+000  4.5550000e+000
  6.1400000e-001  4.8500000e+000  4.5600000e+000
  6.1700000e-001  4.8650000e+000  4.5750000e+000
  6.1900000e-001  4.8650000e+000  4.5800000e+000
  6.2200000e-001  4.8600000e+000  4.5800000e+000
  6.2500000e-001  4.8500000e+000  4.5800000e+000
  6.2800000e-001  4.8450000e+000  4.5750000e+000
  6.3100000e-001  4.8500000e+000  4.5850000e+000
  6.3300000e-001  4.8550000e+000  4.5950000e+000
  6.3600000e-001  4.8650000e+000  4.6050000e+000
  6.3900000e-001  4.8550000e+000  4.6100000e+000
  6.4200000e-001  4.8400000e+000  4.6000000e+000
  6.4400000e-001  4.8350000e+000  4.6100000e+000
  6.4700000e-001  4.8350000e+000  4.6200000e+000
  6.5000000e-001  4.8400000e+000  4.6250000e+000
  6.5300000e-001  4.8600000e+000  4.6400000e+000
  6.5600000e-001  4.8550000e+000  4.6250000e+000
  6.5800000e-001  4.8500000e+000  4.6200000e+000
  6.6100000e-001  4.8400000e+000  4.6250000e+000
  6.6400000e-001  4.8350000e+000  4.6400000e+000
  6.6700000e-001  4.8350000e+000  4.6550000e+000
  6.6900000e-001  4.8600000e+000  4.6600000e+000
  6.7200000e-001  4.8650000e+000  4.6700000e+000
  6.7500000e-001  4.8500000e+000  4.6550000e+000
  6.7800000e-001  4.8450000e+000  4.6500000e+000
  6.8100000e-001  4.8350000e+000  4.6700000e+000
  6.8300000e-001  4.8500000e+000  4.6900000e+000
  6.8600000e-001  4.8450000e+000  4.6950000e+000
  6.8900000e-001  4.8300000e+000  4.6800000e+000
  6.9200000e-001  4.8150000e+000  4.6800000e+000
  6.9400000e-001  4.8000000e+000  4.6800000e+000
  6.9700000e-001  4.8150000e+000  4.6850000e+000
  7.0000000e-001  4.8300000e+000  4.7050000e+000
  7.0300000e-001  4.8450000e+000  4.7050000e+000
  7.0600000e-001  4.8350000e+000  4.7000000e+000
  7.0800000e-001  4.8100000e+000  4.6950000e+000
  7.1100000e-001  4.7950000e+000  4.6900000e+000
  7.1400000e-001  4.8050000e+000  4.7100000e+000
  7.1700000e-001  4.8050000e+000  4.7050000e+000
  7.1900000e-001  4.8200000e+000  4.7100000e+000
  7.2200000e-001  4.8100000e+000  4.7050000e+000
  7.2500000e-001  4.7850000e+000  4.6900000e+000
  7.2800000e-001  4.7800000e+000  4.6950000e+000
  7.3100000e-001  4.7550000e+000  4.7100000e+000
  7.3300000e-001  4.7650000e+000  4.7150000e+000
  7.3600000e-001  4.7850000e+000  4.7200000e+000
  7.3900000e-001  4.7800000e+000  4.7100000e+000
  7.4200000e-001  4.7800000e+000  4.6950000e+000
  7.4400000e-001  4.7450000e+000  4.7150000e+000
  7.4700000e-001  4.7550000e+000  4.7100000e+000
  7.5000000e-001  4.7700000e+000  4.7100000e+000
  7.5300000e-001  4.7800000e+000  4.7100000e+000
  7.5600000e-001  4.7600000e+000  4.7150000e+000
  7.5800000e-001  4.7600000e+000  4.7100000e+000
  7.6100000e-001  4.7450000e+000  4.7000000e+000
  7.6400000e-001  4.7500000e+000  4.7050000e+000
  7.6700000e-001  4.7650000e+000  4.7150000e+000
  7.6900000e-001  4.7700000e+000  4.7200000e+000
  7.7200000e-001  4.7700000e+000  4.7200000e+000
  7.7500000e-001  4.7600000e+000  4.7050000e+000
  7.7800000e-001  4.7500000e+000  4.7050000e+000
  7.8100000e-001  4.7450000e+000  4.7000000e+000
  7.8300000e-001  4.7450000e+000  4.7150000e+000
  7.8600000e-001  4.7700000e+000  4.7100000e+000
  7.8900000e-001  4.7600000e+000  4.7200000e+000
  7.9200000e-001  4.7600000e+000  4.7050000e+000
  7.9400000e-001  4.7400000e+000  4.7000000e+000
  7.9700000e-001  4.7450000e+000  4.7100000e+000
  8.0000000e-001  4.7650000e+000  4.7200000e+000
  8.0300000e-001  4.7750000e+000  4.7200000e+000
  8.0600000e-001  4.7800000e+000  4.7200000e+000
  8.0800000e-001  4.7750000e+000  4.7050000e+000
  8.1100000e-001  4.7650000e+000  4.7050000e+000
  8.1400000e-001  4.7600000e+000  4.7150000e+000
  8.1700000e-001  4.7750000e+000  4.7300000e+000
  8.1900000e-001  4.7850000e+000  4.7400000e+000
  8.2200000e-001  4.7750000e+000  4.7250000e+000
  8.2500000e-001  4.7800000e+000  4.7150000e+000
  8.2800000e-001  4.7800000e+000  4.7250000e+000
  8.3100000e-001  4.7800000e+000  4.7250000e+000
  8.3300000e-001  4.7900000e+000  4.7400000e+000
  8.3600000e-001  4.7900000e+000  4.7350000e+000
  8.3900000e-001  4.7950000e+000  4.7200000e+000
  8.4200000e-001  4.7900000e+000  4.7250000e+000
  8.4400000e-001  4.7850000e+000  4.7200000e+000
  8.4700000e-001  4.7900000e+000  4.7450000e+000
  8.5000000e-001  4.8100000e+000  4.7450000e+000
  8.5300000e-001  4.8250000e+000  4.7400000e+000
  8.5600000e-001  4.8200000e+000  4.7350000e+000
  8.5800000e-001  4.8000000e+000  4.7250000e+000
  8.6100000e-001  4.7900000e+000  4.7150000e+000
  8.6400000e-001  4.7750000e+000  4.7300000e+000
  8.6700000e-001  4.7950000e+000  4.7350000e+000
  8.6900000e-001  4.8050000e+000  4.7400000e+000
  8.7200000e-001  4.8100000e+000  4.7400000e+000
  8.7500000e-001  4.8050000e+000  4.7350000e+000
  8.7800000e-001  4.7750000e+000  4.7350000e+000
  8.8100000e-001  4.7900000e+000  4.7350000e+000
  8.8300000e-001  4.8100000e+000  4.7450000e+000
  8.8600000e-001  4.8300000e+000  4.7500000e+000
  8.8900000e-001  4.8050000e+000  4.7400000e+000
  8.9200000e-001  4.7850000e+000  4.7250000e+000
  8.9400000e-001  4.7850000e+000  4.7250000e+000
  8.9700000e-001  4.7750000e+000  4.7500000e+000
  9.0000000e-001  4.7950000e+000  4.7600000e+000
  9.0300000e-001  4.8150000e+000  4.7550000e+000
  9.0600000e-001  4.8200000e+000  4.7550000e+000
  9.0800000e-001  4.8150000e+000  4.7500000e+000
  9.1100000e-001  4.8150000e+000  4.7400000e+000
  9.1400000e-001  4.8050000e+000  4.7600000e+000
  9.1700000e-001  4.8200000e+000  4.7700000e+000
  9.1900000e-001  4.8300000e+000  4.7750000e+000
  9.2200000e-001  4.8200000e+000  4.7700000e+000
  9.2500000e-001  4.8000000e+000  4.7750000e+000
  9.2800000e-001  4.7950000e+000  4.7650000e+000
  9.3100000e-001  4.8000000e+000  4.7700000e+000
  9.3300000e-001  4.8150000e+000  4.7850000e+000
  9.3600000e-001  4.8150000e+000  4.7950000e+000
  9.3900000e-001  4.8100000e+000  4.8000000e+000
  9.4200000e-001  4.8100000e+000  4.7700000e+000
  9.4400000e-001  4.8100000e+000  4.7700000e+000
  9.4700000e-001  4.8150000e+000  4.7650000e+000
  9.5000000e-001  4.8200000e+000  4.7750000e+000
  9.5300000e-001  4.8400000e+000  4.7950000e+000
  9.5600000e-001  4.8550000e+000  4.7900000e+000
  9.5800000e-001  4.8450000e+000  4.8000000e+000
  9.6100000e-001  4.8400000e+000  4.8150000e+000
  9.6400000e-001  4.8550000e+000  4.8050000e+000
  9.6700000e-001  4.8700000e+000  4.8300000e+000
  9.6900000e-001  4.8850000e+000  4.8450000e+000
  9.7200000e-001  4.8950000e+000  4.8600000e+000
  9.7500000e-001  4.8950000e+000  4.8650000e+000
  9.7800000e-001  4.8900000e+000  4.8650000e+000
  9.8100000e-001  4.9200000e+000  4.8800000e+000
  9.8300000e-001  4.9400000e+000  4.8850000e+000
  9.8600000e-001  4.9650000e+000  4.8850000e+000
  9.8900000e-001  4.9750000e+000  4.8700000e+000
  9.9200000e-001  4.9700000e+000  4.8350000e+000
  9.9400000e-001  4.9700000e+000  4.8200000e+000
  9.9700000e-001  5.0000000e+000  4.8350000e+000
  1.0000000e+000  5.0150000e+000  4.8500000e+000
  1.0030000e+000  5.0250000e+000  4.8400000e+000
  1.0060000e+000  5.0350000e+000  4.8300000e+000
  1.0080000e+000  5.0300000e+000  4.8300000e+000
  1.0110000e+000  5.0250000e+000  4.8150000e+000
  1.0140000e+000  5.0250000e+000  4.8200000e+000
  1.0170000e+000  5.0450000e+000  4.8350000e+000
  1.0190000e+000  5.0650000e+000  4.8400000e+000
  1.0220000e+000  5.0700000e+000  4.8500000e+000
  1.0250000e+000  5.0550000e+000  4.8350000e+000
  1.0280000e+000  5.0100000e+000  4.8400000e+000
  1.0310000e+000  4.9850000e+000  4.8450000e+000
  1.0330000e+000  4.9550000e+000  4.8500000e+000
  1.0360000e+000  4.9350000e+000  4.8450000e+000
  1.0390000e+000  4.9000000e+000  4.8350000e+000
  1.0420000e+000  4.8450000e+000  4.8250000e+000
  1.0440000e+000  4.8000000e+000  4.8150000e+000
  1.0470000e+000  4.7700000e+000  4.8200000e+000
  1.0500000e+000  4.7500000e+000  4.8100000e+000
  1.0530000e+000  4.7700000e+000  4.8150000e+000
  1.0560000e+000  4.7700000e+000  4.8050000e+000
  1.0580000e+000  4.7650000e+000  4.7950000e+000
  1.0610000e+000  4.7600000e+000  4.7900000e+000
  1.0640000e+000  4.7550000e+000  4.8000000e+000
  1.0670000e+000  4.7600000e+000  4.8150000e+000
  1.0690000e+000  4.7750000e+000  4.8200000e+000
  1.0720000e+000  4.7800000e+000  4.8150000e+000
  1.0750000e+000  4.7650000e+000  4.8100000e+000
  1.0780000e+000  4.7500000e+000  4.7950000e+000
  1.0810000e+000  4.7400000e+000  4.8000000e+000
  1.0830000e+000  4.7300000e+000  4.8300000e+000
  1.0860000e+000  4.7600000e+000  4.8250000e+000
  1.0890000e+000  4.7800000e+000  4.8300000e+000
  1.0920000e+000  4.8000000e+000  4.8250000e+000
  1.0940000e+000  4.7800000e+000  4.8250000e+000
  1.0970000e+000  4.7600000e+000  4.8300000e+000
  1.1000000e+000  4.7650000e+000  4.8400000e+000
  1.1030000e+000  4.7750000e+000  4.8350000e+000
  1.1060000e+000  4.7800000e+000  4.8250000e+000
  1.1080000e+000  4.7650000e+000  4.8200000e+000
  1.1110000e+000  4.7700000e+000  4.8150000e+000
  1.1140000e+000  4.7700000e+000  4.8350000e+000
  1.1170000e+000  4.7750000e+000  4.8400000e+000
  1.1190000e+000  4.7700000e+000  4.8400000e+000
  1.1220000e+000  4.7650000e+000  4.8250000e+000
  1.1250000e+000  4.7500000e+000  4.8150000e+000
  1.1280000e+000  4.7500000e+000  4.8200000e+000
  1.1310000e+000  4.7600000e+000  4.8250000e+000
  1.1330000e+000  4.7750000e+000  4.8450000e+000
  1.1360000e+000  4.7900000e+000  4.8450000e+000
  1.1390000e+000  4.7900000e+000  4.8550000e+000
  1.1420000e+000  4.7700000e+000  4.8400000e+000
  1.1440000e+000  4.7600000e+000  4.8500000e+000
  1.1470000e+000  4.7500000e+000  4.8500000e+000
  1.1500000e+000  4.7450000e+000  4.8300000e+000
  1.1530000e+000  4.7350000e+000  4.7600000e+000
  1.1560000e+000  4.7300000e+000  4.6850000e+000
  1.1580000e+000  4.7450000e+000  4.5950000e+000
  1.1610000e+000  4.7750000e+000  4.4950000e+000
  1.1640000e+000  4.8050000e+000  4.3700000e+000
  1.1670000e+000  4.8450000e+000  4.1800000e+000
  1.1690000e+000  4.8700000e+000  3.9250000e+000
  1.1720000e+000  4.8550000e+000  3.6600000e+000
  1.1750000e+000  4.7800000e+000  3.4600000e+000
  1.1780000e+000  4.6950000e+000  3.4150000e+000
  1.1810000e+000  4.6250000e+000  3.4550000e+000
  1.1830000e+000  4.6100000e+000  3.5150000e+000
  1.1860000e+000  4.6250000e+000  3.5500000e+000
  1.1890000e+000  4.6350000e+000  3.5900000e+000
  1.1920000e+000  4.6250000e+000  3.6100000e+000
  1.1940000e+000  4.5900000e+000  3.6600000e+000
  1.1970000e+000  4.5450000e+000  3.7100000e+000
  1.2000000e+000  4.5200000e+000  3.7450000e+000
  1.2030000e+000  4.4900000e+000  3.7650000e+000
  1.2060000e+000  4.4650000e+000  3.7900000e+000
  1.2080000e+000  4.4400000e+000  3.8250000e+000
  1.2110000e+000  4.3950000e+000  3.8600000e+000
  1.2140000e+000  4.3400000e+000  3.9200000e+000
  1.2170000e+000  4.2750000e+000  3.9750000e+000
  1.2190000e+000  4.2200000e+000  4.0250000e+000
  1.2220000e+000  4.2050000e+000  4.0550000e+000
  1.2250000e+000  4.1850000e+000  4.0950000e+000
  1.2280000e+000  4.1850000e+000  4.1500000e+000
  1.2310000e+000  4.2050000e+000  4.2450000e+000
  1.2330000e+000  4.2400000e+000  4.3650000e+000
  1.2360000e+000  4.2650000e+000  4.4350000e+000
  1.2390000e+000  4.3000000e+000  4.5050000e+000
  1.2420000e+000  4.3650000e+000  4.5600000e+000
  1.2440000e+000  4.4350000e+000  4.6450000e+000
  1.2470000e+000  4.5100000e+000  4.7100000e+000
  1.2500000e+000  4.5700000e+000  4.7900000e+000
  1.2530000e+000  4.6100000e+000  4.8550000e+000
  1.2560000e+000  4.6400000e+000  4.9050000e+000
  1.2580000e+000  4.6800000e+000  4.9400000e+000
  1.2610000e+000  4.7300000e+000  4.9800000e+000
  1.2640000e+000  4.7650000e+000  5.0400000e+000
  1.2670000e+000  4.8050000e+000  5.0750000e+000
  1.2690000e+000  4.8200000e+000  5.0950000e+000
  1.2720000e+000  4.8200000e+000  5.1150000e+000
  1.2750000e+000  4.8200000e+000  5.1100000e+000
  1.2780000e+000  4.8200000e+000  5.1250000e+000
  1.2810000e+000  4.8300000e+000  5.1250000e+000
  1.2830000e+000  4.8450000e+000  5.1400000e+000
  1.2860000e+000  4.8550000e+000  5.1600000e+000
  1.2890000e+000  4.8450000e+000  5.1650000e+000
  1.2920000e+000  4.8300000e+000  5.1600000e+000
  1.2940000e+000  4.8200000e+000  5.1650000e+000
  1.2970000e+000  4.8450000e+000  5.1850000e+000
  1.3000000e+000  4.8650000e+000  5.2000000e+000
  1.3030000e+000  4.8750000e+000  5.2050000e+000
  1.3060000e+000  4.8600000e+000  5.2150000e+000
  1.3080000e+000  4.8400000e+000  5.2150000e+000
  1.3110000e+000  4.8450000e+000  5.2050000e+000
  1.3140000e+000  4.8600000e+000  5.2300000e+000
  1.3170000e+000  4.8750000e+000  5.2400000e+000
  1.3190000e+000  4.8800000e+000  5.2400000e+000
  1.3220000e+000  4.8700000e+000  5.2500000e+000
  1.3250000e+000  4.8750000e+000  5.2350000e+000
  1.3280000e+000  4.8600000e+000  5.2400000e+000
  1.3310000e+000  4.8550000e+000  5.2500000e+000
  1.3330000e+000  4.8500000e+000  5.2650000e+000
  1.3360000e+000  4.8800000e+000  5.2800000e+000
  1.3390000e+000  4.8900000e+000  5.2750000e+000
  1.3420000e+000  4.9000000e+000  5.2600000e+000
  1.3440000e+000  4.8950000e+000  5.2650000e+000
  1.3470000e+000  4.9000000e+000  5.2800000e+000
  1.3500000e+000  4.8950000e+000  5.2900000e+000
  1.3530000e+000  4.8950000e+000  5.2950000e+000
  1.3560000e+000  4.8950000e+000  5.2800000e+000
  1.3580000e+000  4.8800000e+000  5.2800000e+000
  1.3610000e+000  4.8800000e+000  5.2850000e+000
  1.3640000e+000  4.8800000e+000  5.2950000e+000
  1.3670000e+000  4.8900000e+000  5.3150000e+000
  1.3690000e+000  4.9200000e+000  5.3150000e+000
  1.3720000e+000  4.9250000e+000  5.3100000e+000
  1.3750000e+000  4.9200000e+000  5.3150000e+000
  1.3780000e+000  4.9050000e+000  5.3150000e+000
  1.3810000e+000  4.8900000e+000  5.3200000e+000
  1.3830000e+000  4.9050000e+000  5.3350000e+000
  1.3860000e+000  4.9400000e+000  5.3400000e+000
  1.3890000e+000  4.9400000e+000  5.3450000e+000
  1.3920000e+000  4.9350000e+000  5.3200000e+000
  1.3940000e+000  4.9250000e+000  5.3250000e+000
  1.3970000e+000  4.9200000e+000  5.3300000e+000
  1.4000000e+000  4.9250000e+000  5.3350000e+000
  1.4030000e+000  4.9450000e+000  5.3500000e+000
  1.4060000e+000  4.9650000e+000  5.3400000e+000
  1.4080000e+000  4.9650000e+000  5.3250000e+000
  1.4110000e+000  4.9450000e+000  5.3400000e+000
  1.4140000e+000  4.9500000e+000  5.3400000e+000
  1.4170000e+000  4.9750000e+000  5.3500000e+000
  1.4190000e+000  4.9800000e+000  5.3500000e+000
  1.4220000e+000  4.9700000e+000  5.3400000e+000
  1.4250000e+000  4.9600000e+000  5.3250000e+000
  1.4280000e+000  4.9650000e+000  5.3350000e+000
  1.4310000e+000  4.9800000e+000  5.3450000e+000
  1.4330000e+000  4.9850000e+000  5.3450000e+000
  1.4360000e+000  5.0050000e+000  5.3450000e+000
  1.4390000e+000  5.0000000e+000  5.3400000e+000
  1.4420000e+000  5.0100000e+000  5.3300000e+000
  1.4440000e+000  5.0050000e+000  5.3300000e+000
  1.4470000e+000  5.0100000e+000  5.3300000e+000
  1.4500000e+000  5.0100000e+000  5.3450000e+000
  1.4530000e+000  5.0250000e+000  5.3350000e+000
  1.4560000e+000  5.0100000e+000  5.3250000e+000
  1.4580000e+000  5.0050000e+000  5.3100000e+000
  1.4610000e+000  4.9900000e+000  5.3100000e+000
  1.4640000e+000  5.0000000e+000  5.3100000e+000
  1.4670000e+000  5.0150000e+000  5.3100000e+000
  1.4690000e+000  5.0200000e+000  5.3150000e+000
  1.4720000e+000  5.0100000e+000  5.3000000e+000
  1.4750000e+000  5.0050000e+000  5.2900000e+000
  1.4780000e+000  5.0000000e+000  5.2800000e+000
  1.4810000e+000  5.0150000e+000  5.2900000e+000
  1.4830000e+000  5.0350000e+000  5.2850000e+000
  1.4860000e+000  5.0300000e+000  5.2750000e+000
  1.4890000e+000  5.0200000e+000  5.2650000e+000
  1.4920000e+000  5.0050000e+000  5.2350000e+000
  1.4940000e+000  4.9900000e+000  5.2350000e+000
  1.4970000e+000  4.9950000e+000  5.2350000e+000
  1.5000000e+000  5.0200000e+000  5.2300000e+000
  1.5030000e+000  5.0200000e+000  5.2200000e+000
  1.5060000e+000  5.0050000e+000  5.2050000e+000
  1.5080000e+000  4.9900000e+000  5.1850000e+000
  1.5110000e+000  4.9750000e+000  5.1800000e+000
  1.5140000e+000  4.9650000e+000  5.1700000e+000
  1.5170000e+000  4.9600000e+000  5.1500000e+000
  1.5190000e+000  4.9800000e+000  5.1550000e+000
  1.5220000e+000  4.9800000e+000  5.1500000e+000
  1.5250000e+000  4.9750000e+000  5.1200000e+000
  1.5280000e+000  4.9550000e+000  5.1150000e+000
  1.5310000e+000  4.9300000e+000  5.1200000e+000
  1.5330000e+000  4.9250000e+000  5.1200000e+000
  1.5360000e+000  4.9500000e+000  5.1100000e+000
  1.5390000e+000  4.9550000e+000  5.1050000e+000
  1.5420000e+000  4.9400000e+000  5.0950000e+000
  1.5440000e+000  4.9300000e+000  5.0850000e+000
  1.5470000e+000  4.9150000e+000  5.1000000e+000
  1.5500000e+000  4.9200000e+000  5.1100000e+000
  1.5530000e+000  4.9500000e+000  5.1000000e+000
  1.5560000e+000  4.9300000e+000  5.1050000e+000
  1.5580000e+000  4.9150000e+000  5.1050000e+000
  1.5610000e+000  4.9100000e+000  5.0850000e+000
  1.5640000e+000  4.9050000e+000  5.0950000e+000
  1.5670000e+000  4.9050000e+000  5.1100000e+000
  1.5690000e+000  4.9150000e+000  5.1050000e+000
  1.5720000e+000  4.9150000e+000  5.1100000e+000
  1.5750000e+000  4.9050000e+000  5.0950000e+000
  1.5780000e+000  4.8950000e+000  5.0900000e+000
  1.5810000e+000  4.9100000e+000  5.1050000e+000
  1.5830000e+000  4.9200000e+000  5.1250000e+000
  1.5860000e+000  4.9250000e+000  5.1150000e+000
  1.5890000e+000  4.9100000e+000  5.1000000e+000
  1.5920000e+000  4.8950000e+000  5.1050000e+000
  1.5940000e+000  4.8800000e+000  5.1100000e+000
  1.5970000e+000  4.8800000e+000  5.1150000e+000
  1.6000000e+000  4.8800000e+000  5.1250000e+000
  1.6030000e+000  4.8750000e+000  5.1150000e+000
  1.6060000e+000  4.8750000e+000  5.1300000e+000
  1.6080000e+000  4.8900000e+000  5.1200000e+000
  1.6110000e+000  4.8950000e+000  5.1150000e+000
  1.6140000e+000  4.9000000e+000  5.1250000e+000
  1.6170000e+000  4.8950000e+000  5.1450000e+000
  1.6190000e+000  4.8850000e+000  5.1600000e+000
  1.6220000e+000  4.8850000e+000  5.1550000e+000
  1.6250000e+000  4.8600000e+000  5.1350000e+000
  1.6280000e+000  4.8550000e+000  5.1400000e+000
  1.6310000e+000  4.8700000e+000  5.1350000e+000
  1.6330000e+000  4.8850000e+000  5.1550000e+000
  1.6360000e+000  4.8950000e+000  5.1550000e+000
  1.6390000e+000  4.8850000e+000  5.1550000e+000
  1.6420000e+000  4.8700000e+000  5.1550000e+000
  1.6440000e+000  4.8350000e+000  5.1550000e+000
  1.6470000e+000  4.8400000e+000  5.1800000e+000
  1.6500000e+000  4.8600000e+000  5.1750000e+000
  1.6530000e+000  4.8700000e+000  5.1850000e+000
  1.6560000e+000  4.8600000e+000  5.1750000e+000
  1.6580000e+000  4.8500000e+000  5.1700000e+000
  1.6610000e+000  4.8450000e+000  5.1650000e+000
  1.6640000e+000  4.8350000e+000  5.1900000e+000
  1.6670000e+000  4.8550000e+000  5.2000000e+000
  1.6690000e+000  4.8600000e+000  5.2000000e+000
  1.6720000e+000  4.8500000e+000  5.2000000e+000
  1.6750000e+000  4.8200000e+000  5.1800000e+000
  1.6780000e+000  4.8150000e+000  5.1850000e+000
  1.6810000e+000  4.8200000e+000  5.1950000e+000
  1.6830000e+000  4.8100000e+000  5.1950000e+000
  1.6860000e+000  4.8300000e+000  5.2000000e+000
  1.6890000e+000  4.8500000e+000  5.1900000e+000
  1.6920000e+000  4.8200000e+000  5.1950000e+000
  1.6940000e+000  4.8000000e+000  5.1800000e+000
  1.6970000e+000  4.8100000e+000  5.1900000e+000
  1.7000000e+000  4.8150000e+000  5.2000000e+000
  1.7030000e+000  4.8350000e+000  5.1950000e+000
  1.7060000e+000  4.8350000e+000  5.1950000e+000
  1.7080000e+000  4.8250000e+000  5.1900000e+000
  1.7110000e+000  4.8050000e+000  5.1750000e+000
  1.7140000e+000  4.8000000e+000  5.1900000e+000
  1.7170000e+000  4.8000000e+000  5.2000000e+000
  1.7190000e+000  4.8050000e+000  5.2050000e+000
  1.7220000e+000  4.8000000e+000  5.2050000e+000
  1.7250000e+000  4.8050000e+000  5.1850000e+000
  1.7280000e+000  4.7800000e+000  5.1800000e+000
  1.7310000e+000  4.7850000e+000  5.2000000e+000
  1.7330000e+000  4.8050000e+000  5.1950000e+000
  1.7360000e+000  4.8100000e+000  5.1850000e+000
  1.7390000e+000  4.8000000e+000  5.1900000e+000
  1.7420000e+000  4.7850000e+000  5.1750000e+000
  1.7440000e+000  4.7800000e+000  5.1700000e+000
  1.7470000e+000  4.7750000e+000  5.1850000e+000
  1.7500000e+000  4.7900000e+000  5.1800000e+000
  1.7530000e+000  4.8050000e+000  5.1850000e+000
  1.7560000e+000  4.8000000e+000  5.1750000e+000
  1.7580000e+000  4.7950000e+000  5.1650000e+000
  1.7610000e+000  4.7800000e+000  5.1650000e+000
  1.7640000e+000  4.7750000e+000  5.1700000e+000
  1.7670000e+000  4.7800000e+000  5.1950000e+000
  1.7690000e+000  4.7900000e+000  5.1900000e+000
  1.7720000e+000  4.7900000e+000  5.1900000e+000
  1.7750000e+000  4.8100000e+000  5.1750000e+000
  1.7780000e+000  4.8050000e+000  5.1700000e+000
  1.7810000e+000  4.8150000e+000  5.1850000e+000
  1.7830000e+000  4.8100000e+000  5.1850000e+000
  1.7860000e+000  4.8100000e+000  5.1850000e+000
  1.7890000e+000  4.8150000e+000  5.1950000e+000
  1.7920000e+000  4.8050000e+000  5.1800000e+000
  1.7940000e+000  4.8000000e+000  5.1750000e+000
  1.7970000e+000  4.8150000e+000  5.1950000e+000
  1.8000000e+000  4.8200000e+000  5.2000000e+000
  1.8030000e+000  4.8200000e+000  5.2000000e+000
  1.8060000e+000  4.8150000e+000  5.1850000e+000
  1.8080000e+000  4.8150000e+000  5.1800000e+000
  1.8110000e+000  4.8000000e+000  5.1650000e+000
  1.8140000e+000  4.8000000e+000  5.1850000e+000
  1.8170000e+000  4.8100000e+000  5.1950000e+000
  1.8190000e+000  4.8100000e+000  5.1900000e+000
  1.8220000e+000  4.8150000e+000  5.1850000e+000
  1.8250000e+000  4.8250000e+000  5.1750000e+000
  1.8280000e+000  4.8250000e+000  5.1850000e+000
  1.8310000e+000  4.8200000e+000  5.1900000e+000
  1.8330000e+000  4.8250000e+000  5.2100000e+000
  1.8360000e+000  4.8200000e+000  5.2000000e+000
  1.8390000e+000  4.8250000e+000  5.1950000e+000
  1.8420000e+000  4.8150000e+000  5.1900000e+000
  1.8440000e+000  4.8150000e+000  5.1850000e+000
  1.8470000e+000  4.8350000e+000  5.1900000e+000
  1.8500000e+000  4.8450000e+000  5.2050000e+000
  1.8530000e+000  4.8300000e+000  5.2050000e+000
  1.8560000e+000  4.8350000e+000  5.2000000e+000
  1.8580000e+000  4.8350000e+000  5.1900000e+000
  1.8610000e+000  4.8050000e+000  5.1750000e+000
  1.8640000e+000  4.8200000e+000  5.1900000e+000
  1.8670000e+000  4.8300000e+000  5.2100000e+000
  1.8690000e+000  4.8350000e+000  5.2000000e+000
  1.8720000e+000  4.8250000e+000  5.2100000e+000
  1.8750000e+000  4.8200000e+000  5.1950000e+000
  1.8780000e+000  4.8300000e+000  5.1900000e+000
  1.8810000e+000  4.8350000e+000  5.2050000e+000
  1.8830000e+000  4.8550000e+000  5.2150000e+000
  1.8860000e+000  4.8500000e+000  5.2050000e+000
  1.8890000e+000  4.8400000e+000  5.2050000e+000
  1.8920000e+000  4.8300000e+000  5.2100000e+000
  1.8940000e+000  4.8250000e+000  5.1950000e+000
  1.8970000e+000  4.8200000e+000  5.2050000e+000
  1.9000000e+000  4.8350000e+000  5.2100000e+000
  1.9030000e+000  4.8450000e+000  5.2150000e+000
  1.9060000e+000  4.8500000e+000  5.2050000e+000
  1.9080000e+000  4.8500000e+000  5.2050000e+000
  1.9110000e+000  4.8350000e+000  5.2000000e+000
  1.9140000e+000  4.8300000e+000  5.2000000e+000
  1.9170000e+000  4.8400000e+000  5.2100000e+000
  1.9190000e+000  4.8450000e+000  5.2200000e+000
  1.9220000e+000  4.8450000e+000  5.2200000e+000
  1.9250000e+000  4.8450000e+000  5.2100000e+000
  1.9280000e+000  4.8450000e+000  5.2250000e+000
  1.9310000e+000  4.8600000e+000  5.2400000e+000
  1.9330000e+000  4.8950000e+000  5.2500000e+000
  1.9360000e+000  4.9150000e+000  5.2600000e+000
  1.9390000e+000  4.9200000e+000  5.2700000e+000
  1.9420000e+000  4.9150000e+000  5.2700000e+000
  1.9440000e+000  4.9050000e+000  5.2800000e+000
  1.9470000e+000  4.9150000e+000  5.3050000e+000
  1.9500000e+000  4.9200000e+000  5.3100000e+000
  1.9530000e+000  4.9450000e+000  5.3100000e+000
  1.9560000e+000  4.9700000e+000  5.3200000e+000
  1.9580000e+000  5.0000000e+000  5.3000000e+000
  1.9610000e+000  5.0050000e+000  5.2900000e+000
  1.9640000e+000  5.0300000e+000  5.2700000e+000
  1.9670000e+000  5.0350000e+000  5.2750000e+000
  1.9690000e+000  5.0550000e+000  5.2750000e+000
  1.9720000e+000  5.0550000e+000  5.2650000e+000
  1.9750000e+000  5.0350000e+000  5.2500000e+000
  1.9780000e+000  5.0400000e+000  5.2400000e+000
  1.9810000e+000  5.0800000e+000  5.2500000e+000
  1.9830000e+000  5.1250000e+000  5.2550000e+000
  1.9860000e+000  5.1300000e+000  5.2600000e+000
  1.9890000e+000  5.1250000e+000  5.2650000e+000
  1.9920000e+000  5.1100000e+000  5.2750000e+000
  1.9940000e+000  5.0800000e+000  5.2700000e+000
  1.9970000e+000  5.0400000e+000  5.2800000e+000
  2.0000000e+000  5.0000000e+000  5.2700000e+000
  2.0030000e+000  4.9850000e+000  5.2600000e+000
  2.0060000e+000  4.9450000e+000  5.2500000e+000
  2.0080000e+000  4.9050000e+000  5.2400000e+000
  2.0110000e+000  4.8550000e+000  5.2300000e+000
  2.0140000e+000  4.8150000e+000  5.2250000e+000
  2.0170000e+000  4.8050000e+000  5.2300000e+000
  2.0190000e+000  4.8050000e+000  5.2150000e+000
  2.0220000e+000  4.8050000e+000  5.2200000e+000
  2.0250000e+000  4.8150000e+000  5.2150000e+000
  2.0280000e+000  4.8000000e+000  5.2050000e+000
  2.0310000e+000  4.8050000e+000  5.2200000e+000
  2.0330000e+000  4.8150000e+000  5.2300000e+000
  2.0360000e+000  4.8300000e+000  5.2300000e+000
  2.0390000e+000  4.8150000e+000  5.2300000e+000
  2.0420000e+000  4.8050000e+000  5.2250000e+000
  2.0440000e+000  4.7950000e+000  5.2200000e+000
  2.0470000e+000  4.8050000e+000  5.2250000e+000
  2.0500000e+000  4.8050000e+000  5.2350000e+000
  2.0530000e+000  4.8150000e+000  5.2300000e+000
  2.0560000e+000  4.8100000e+000  5.2300000e+000
  2.0580000e+000  4.8100000e+000  5.2100000e+000
  2.0610000e+000  4.8050000e+000  5.2100000e+000
  2.0640000e+000  4.8000000e+000  5.2200000e+000
  2.0670000e+000  4.8050000e+000  5.2250000e+000
  2.0690000e+000  4.8150000e+000  5.2300000e+000
  2.0720000e+000  4.8350000e+000  5.2200000e+000
  2.0750000e+000  4.8350000e+000  5.2200000e+000
  2.0780000e+000  4.8100000e+000  5.2100000e+000
  2.0810000e+000  4.8000000e+000  5.2300000e+000
  2.0830000e+000  4.8000000e+000  5.2350000e+000
  2.0860000e+000  4.8100000e+000  5.2300000e+000
  2.0890000e+000  4.7750000e+000  5.2250000e+000
  2.0920000e+000  4.7800000e+000  5.2050000e+000
  2.0940000e+000  4.7700000e+000  5.2050000e+000
  2.0970000e+000  4.7750000e+000  5.2200000e+000
  2.1000000e+000  4.7750000e+000  5.2350000e+000
  2.1030000e+000  4.8000000e+000  5.2300000e+000
  2.1060000e+000  4.8050000e+000  5.2200000e+000
  2.1080000e+000  4.8050000e+000  5.2250000e+000
  2.1110000e+000  4.7750000e+000  5.2300000e+000
  2.1140000e+000  4.7800000e+000  5.2400000e+000
  2.1170000e+000  4.8000000e+000  5.2150000e+000
  2.1190000e+000  4.8050000e+000  5.1400000e+000
  2.1220000e+000  4.7950000e+000  5.0600000e+000
  2.1250000e+000  4.7700000e+000  4.9450000e+000
  2.1280000e+000  4.7800000e+000  4.8250000e+000
  2.1310000e+000  4.8000000e+000  4.6950000e+000
  2.1330000e+000  4.8350000e+000  4.5150000e+000
  2.1360000e+000  4.8500000e+000  4.2650000e+000
  2.1390000e+000  4.8550000e+000  3.9800000e+000
  2.1420000e+000  4.8400000e+000  3.7650000e+000
  2.1440000e+000  4.7700000e+000  3.6800000e+000
  2.1470000e+000  4.6950000e+000  3.7150000e+000
  2.1500000e+000  4.6550000e+000  3.7800000e+000
  2.1530000e+000  4.6500000e+000  3.8300000e+000
  2.1560000e+000  4.6300000e+000  3.8800000e+000
  2.1580000e+000  4.6100000e+000  3.9200000e+000
  2.1610000e+000  4.5900000e+000  3.9650000e+000
  2.1640000e+000  4.5550000e+000  4.0150000e+000
  2.1670000e+000  4.5150000e+000  4.0450000e+000
  2.1690000e+000  4.4950000e+000  4.0650000e+000
  2.1720000e+000  4.4650000e+000  4.1000000e+000
  2.1750000e+000  4.4400000e+000  4.1300000e+000
  2.1780000e+000  4.4150000e+000  4.1800000e+000
  2.1810000e+000  4.3600000e+000  4.2250000e+000
  2.1830000e+000  4.3000000e+000  4.2800000e+000
  2.1860000e+000  4.2600000e+000  4.3500000e+000
  2.1890000e+000  4.2200000e+000  4.4000000e+000
  2.1920000e+000  4.2050000e+000  4.4350000e+000
  2.1940000e+000  4.1950000e+000  4.5000000e+000
  2.1970000e+000  4.2250000e+000  4.5850000e+000
  2.2000000e+000  4.2800000e+000  4.6900000e+000
  2.2030000e+000  4.3050000e+000  4.7700000e+000
  2.2060000e+000  4.3300000e+000  4.8450000e+000
  2.2080000e+000  4.3750000e+000  4.9100000e+000
  2.2110000e+000  4.4500000e+000  4.9650000e+000
  2.2140000e+000  4.5400000e+000  5.0550000e+000
  2.2170000e+000  4.6050000e+000  5.1200000e+000
  2.2190000e+000  4.6450000e+000  5.1750000e+000
  2.2220000e+000  4.6600000e+000  5.2300000e+000
  2.2250000e+000  4.6950000e+000  5.2650000e+000
  2.2280000e+000  4.7250000e+000  5.3150000e+000
  2.2310000e+000  4.7750000e+000  5.3600000e+000
  2.2330000e+000  4.8050000e+000  5.4000000e+000
  2.2360000e+000  4.8250000e+000  5.4100000e+000
  2.2390000e+000  4.8300000e+000  5.4250000e+000
  2.2420000e+000  4.8400000e+000  5.4300000e+000
  2.2440000e+000  4.8400000e+000  5.4350000e+000
  2.2470000e+000  4.8350000e+000  5.4450000e+000
  2.2500000e+000  4.8500000e+000  5.4650000e+000
  2.2530000e+000  4.8600000e+000  5.4600000e+000
  2.2560000e+000  4.8650000e+000  5.4750000e+000
  2.2580000e+000  4.8550000e+000  5.4700000e+000
  2.2610000e+000  4.8550000e+000  5.4650000e+000
  2.2640000e+000  4.8550000e+000  5.4800000e+000
  2.2670000e+000  4.8550000e+000  5.5050000e+000
  2.2690000e+000  4.8550000e+000  5.5000000e+000
  2.2720000e+000  4.8600000e+000  5.5150000e+000
  2.2750000e+000  4.8500000e+000  5.5050000e+000
  2.2780000e+000  4.8350000e+000  5.5150000e+000
  2.2810000e+000  4.8600000e+000  5.5250000e+000
  2.2830000e+000  4.9050000e+000  5.5350000e+000
  2.2860000e+000  4.9300000e+000  5.5250000e+000
  2.2890000e+000  4.9100000e+000  5.5200000e+000
  2.2920000e+000  4.8900000e+000  5.5300000e+000
  2.2940000e+000  4.8650000e+000  5.5200000e+000
  2.2970000e+000  4.8650000e+000  5.5350000e+000
  2.3000000e+000  4.8900000e+000  5.5300000e+000
  2.3030000e+000  4.8850000e+000  5.5500000e+000
  2.3060000e+000  4.8850000e+000  5.5400000e+000
  2.3080000e+000  4.8750000e+000  5.5400000e+000
  2.3110000e+000  4.8900000e+000  5.5300000e+000
  2.3140000e+000  4.9050000e+000  5.5500000e+000
  2.3170000e+000  4.9000000e+000  5.5550000e+000
  2.3190000e+000  4.9000000e+000  5.5600000e+000
  2.3220000e+000  4.9000000e+000  5.5550000e+000
  2.3250000e+000  4.8950000e+000  5.5550000e+000
  2.3280000e+000  4.8900000e+000  5.5600000e+000
  2.3310000e+000  4.8950000e+000  5.5600000e+000
  2.3330000e+000  4.9150000e+000  5.5750000e+000
  2.3360000e+000  4.9300000e+000  5.5750000e+000
  2.3390000e+000  4.9200000e+000  5.5800000e+000
  2.3420000e+000  4.9050000e+000  5.5550000e+000
  2.3440000e+000  4.8900000e+000  5.5650000e+000
  2.3470000e+000  4.9000000e+000  5.5650000e+000
  2.3500000e+000  4.9350000e+000  5.5750000e+000
  2.3530000e+000  4.9500000e+000  5.5800000e+000
  2.3560000e+000  4.9600000e+000  5.5800000e+000
  2.3580000e+000  4.9400000e+000  5.5600000e+000
  2.3610000e+000  4.9200000e+000  5.5500000e+000
  2.3640000e+000  4.9150000e+000  5.5650000e+000
  2.3670000e+000  4.9450000e+000  5.5800000e+000
  2.3690000e+000  4.9850000e+000  5.5700000e+000
  2.3720000e+000  5.0100000e+000  5.5650000e+000
  2.3750000e+000  4.9750000e+000  5.5650000e+000
  2.3780000e+000  4.9450000e+000  5.5550000e+000
  2.3810000e+000  4.9400000e+000  5.5600000e+000
  2.3830000e+000  4.9650000e+000  5.5800000e+000
  2.3860000e+000  4.9850000e+000  5.5850000e+000
  2.3890000e+000  4.9950000e+000  5.5650000e+000
  2.3920000e+000  4.9750000e+000  5.5600000e+000
  2.3940000e+000  4.9700000e+000  5.5600000e+000
  2.3970000e+000  4.9800000e+000  5.5700000e+000
  2.4000000e+000  4.9750000e+000  5.5700000e+000
  2.4030000e+000  5.0000000e+000  5.5600000e+000
  2.4060000e+000  5.0250000e+000  5.5550000e+000
  2.4080000e+000  5.0200000e+000  5.5400000e+000
  2.4110000e+000  5.0000000e+000  5.5300000e+000
  2.4140000e+000  5.0150000e+000  5.5350000e+000
  2.4170000e+000  5.0100000e+000  5.5350000e+000
  2.4190000e+000  5.0100000e+000  5.5300000e+000
  2.4220000e+000  5.0050000e+000  5.5150000e+000
  2.4250000e+000  5.0050000e+000  5.4900000e+000
  2.4280000e+000  4.9950000e+000  5.4900000e+000
  2.4310000e+000  5.0150000e+000  5.5150000e+000
  2.4330000e+000  5.0250000e+000  5.5150000e+000
  2.4360000e+000  5.0300000e+000  5.5150000e+000
  2.4390000e+000  5.0350000e+000  5.5000000e+000
  2.4420000e+000  5.0200000e+000  5.4900000e+000
  2.4440000e+000  4.9900000e+000  5.4700000e+000
  2.4470000e+000  4.9700000e+000  5.4800000e+000
  2.4500000e+000  4.9800000e+000  5.4650000e+000
  2.4530000e+000  5.0100000e+000  5.4650000e+000
  2.4560000e+000  5.0500000e+000  5.4550000e+000
  2.4580000e+000  5.0550000e+000  5.4350000e+000
  2.4610000e+000  5.0150000e+000  5.4350000e+000
  2.4640000e+000  4.9850000e+000  5.4200000e+000
  2.4670000e+000  4.9800000e+000  5.4350000e+000
  2.4690000e+000  5.0100000e+000  5.4200000e+000
  2.4720000e+000  5.0300000e+000  5.4050000e+000
  2.4750000e+000  5.0150000e+000  5.3800000e+000
  2.4780000e+000  4.9950000e+000  5.3750000e+000
  2.4810000e+000  4.9900000e+000  5.3700000e+000
  2.4830000e+000  4.9750000e+000  5.3700000e+000
  2.4860000e+000  4.9900000e+000  5.3500000e+000
  2.4890000e+000  4.9700000e+000  5.3550000e+000
  2.4920000e+000  4.9400000e+000  5.3300000e+000
  2.4940000e+000  4.9350000e+000  5.3400000e+000
  2.4970000e+000  4.9300000e+000  5.3350000e+000
  2.5000000e+000  4.9350000e+000  5.3500000e+000
  2.5030000e+000  4.9500000e+000  5.3350000e+000
  2.5060000e+000  4.9450000e+000  5.3300000e+000
  2.5080000e+000  4.9200000e+000  5.3100000e+000
  2.5110000e+000  4.9100000e+000  5.3050000e+000
  2.5140000e+000  4.9050000e+000  5.3200000e+000
  2.5170000e+000  4.9100000e+000  5.3250000e+000
  2.5190000e+000  4.9100000e+000  5.3300000e+000
  2.5220000e+000  4.8950000e+000  5.3250000e+000
  2.5250000e+000  4.8850000e+000  5.3050000e+000
  2.5280000e+000  4.8750000e+000  5.3050000e+000
  2.5310000e+000  4.8700000e+000  5.3150000e+000
  2.5330000e+000  4.8900000e+000  5.3300000e+000
  2.5360000e+000  4.9000000e+000  5.3150000e+000
  2.5390000e+000  4.8950000e+000  5.3200000e+000
  2.5420000e+000  4.8850000e+000  5.3100000e+000
  2.5440000e+000  4.8550000e+000  5.3150000e+000
  2.5470000e+000  4.8650000e+000  5.3200000e+000
  2.5500000e+000  4.8700000e+000  5.3350000e+000
  2.5530000e+000  4.8800000e+000  5.3350000e+000
  2.5560000e+000  4.8800000e+000  5.3450000e+000
  2.5580000e+000  4.8650000e+000  5.3250000e+000
  2.5610000e+000  4.8500000e+000  5.3250000e+000
  2.5640000e+000  4.8450000e+000  5.3300000e+000
  2.5670000e+000  4.8550000e+000  5.3450000e+000
  2.5690000e+000  4.8700000e+000  5.3400000e+000
  2.5720000e+000  4.8550000e+000  5.3450000e+000
  2.5750000e+000  4.8500000e+000  5.3300000e+000
  2.5780000e+000  4.8200000e+000  5.3250000e+000
  2.5810000e+000  4.8450000e+000  5.3350000e+000
  2.5830000e+000  4.8550000e+000  5.3500000e+000
  2.5860000e+000  4.8550000e+000  5.3500000e+000
  2.5890000e+000  4.8600000e+000  5.3400000e+000
  2.5920000e+000  4.8500000e+000  5.3350000e+000
  2.5940000e+000  4.8250000e+000  5.3250000e+000
  2.5970000e+000  4.8250000e+000  5.3450000e+000
  2.6000000e+000  4.8350000e+000  5.3600000e+000
  2.6030000e+000  4.8450000e+000  5.3550000e+000
  2.6060000e+000  4.8450000e+000  5.3500000e+000
  2.6080000e+000  4.8250000e+000  5.3450000e+000
  2.6110000e+000  4.8100000e+000  5.3500000e+000
  2.6140000e+000  4.7950000e+000  5.3550000e+000
  2.6170000e+000  4.8100000e+000  5.3650000e+000
  2.6190000e+000  4.8300000e+000  5.3650000e+000
  2.6220000e+000  4.8300000e+000  5.3600000e+000
  2.6250000e+000  4.8250000e+000  5.3550000e+000
  2.6280000e+000  4.8150000e+000  5.3550000e+000
  2.6310000e+000  4.8050000e+000  5.3500000e+000
  2.6330000e+000  4.8100000e+000  5.3700000e+000
  2.6360000e+000  4.8150000e+000  5.3650000e+000
  2.6390000e+000  4.8300000e+000  5.3600000e+000
  2.6420000e+000  4.8100000e+000  5.3500000e+000
  2.6440000e+000  4.7850000e+000  5.3550000e+000
  2.6470000e+000  4.7750000e+000  5.3550000e+000
  2.6500000e+000  4.7750000e+000  5.3650000e+000
  2.6530000e+000  4.7850000e+000  5.3550000e+000
  2.6560000e+000  4.7900000e+000  5.3600000e+000
  2.6580000e+000  4.7900000e+000  5.3450000e+000
  2.6610000e+000  4.7800000e+000  5.3450000e+000
  2.6640000e+000  4.7700000e+000  5.3550000e+000
  2.6670000e+000  4.7750000e+000  5.3600000e+000
  2.6690000e+000  4.7900000e+000  5.3600000e+000
  2.6720000e+000  4.7900000e+000  5.3550000e+000
  2.6750000e+000  4.7750000e+000  5.3450000e+000
  2.6780000e+000  4.7450000e+000  5.3400000e+000
  2.6810000e+000  4.7600000e+000  5.3350000e+000
  2.6830000e+000  4.7700000e+000  5.3650000e+000
  2.6860000e+000  4.7800000e+000  5.3550000e+000
  2.6890000e+000  4.7750000e+000  5.3400000e+000
  2.6920000e+000  4.7500000e+000  5.3300000e+000
  2.6940000e+000  4.7500000e+000  5.3150000e+000
  2.6970000e+000  4.7600000e+000  5.3250000e+000
  2.7000000e+000  4.7550000e+000  5.3400000e+000
  2.7030000e+000  4.7750000e+000  5.3300000e+000
  2.7060000e+000  4.7650000e+000  5.3300000e+000
  2.7080000e+000  4.7500000e+000  5.3100000e+000
  2.7110000e+000  4.7500000e+000  5.3200000e+000
  2.7140000e+000  4.7450000e+000  5.3150000e+000
  2.7170000e+000  4.7650000e+000  5.3300000e+000
  2.7190000e+000  4.7750000e+000  5.3350000e+000
  2.7220000e+000  4.7800000e+000  5.3250000e+000
  2.7250000e+000  4.7700000e+000  5.3200000e+000
  2.7280000e+000  4.7550000e+000  5.3250000e+000
  2.7310000e+000  4.7500000e+000  5.3300000e+000
  2.7330000e+000  4.7550000e+000  5.3300000e+000
  2.7360000e+000  4.7650000e+000  5.3250000e+000
  2.7390000e+000  4.7550000e+000  5.3150000e+000
  2.7420000e+000  4.7450000e+000  5.3300000e+000
  2.7440000e+000  4.7500000e+000  5.3200000e+000
  2.7470000e+000  4.7550000e+000  5.3250000e+000
  2.7500000e+000  4.7800000e+000  5.3350000e+000
  2.7530000e+000  4.8050000e+000  5.3250000e+000
  2.7560000e+000  4.7850000e+000  5.3300000e+000
  2.7580000e+000  4.7700000e+000  5.3200000e+000
  2.7610000e+000  4.7550000e+000  5.3200000e+000
  2.7640000e+000  4.7700000e+000  5.3200000e+000
  2.7670000e+000  4.7700000e+000  5.3300000e+000
  2.7690000e+000  4.7850000e+000  5.3400000e+000
  2.7720000e+000  4.7800000e+000  5.3200000e+000
  2.7750000e+000  4.7650000e+000  5.3100000e+000
  2.7780000e+000  4.7700000e+000  5.3250000e+000
  2.7810000e+000  4.7850000e+000  5.3350000e+000
  2.7830000e+000  4.7800000e+000  5.3200000e+000
  2.7860000e+000  4.7900000e+000  5.3250000e+000
  2.7890000e+000  4.7700000e+000  5.3150000e+000
  2.7920000e+000  4.7650000e+000  5.3200000e+000
  2.7940000e+000  4.7700000e+000  5.3300000e+000
  2.7970000e+000  4.7950000e+000  5.3400000e+000
  2.8000000e+000  4.8050000e+000  5.3350000e+000
  2.8030000e+000  4.7950000e+000  5.3200000e+000
  2.8060000e+000  4.7800000e+000  5.3150000e+000
  2.8080000e+000  4.7550000e+000  5.3000000e+000
  2.8110000e+000  4.7600000e+000  5.3050000e+000
  2.8140000e+000  4.7800000e+000  5.3250000e+000
  2.8170000e+000  4.7950000e+000  5.3250000e+000
  2.8190000e+000  4.8000000e+000  5.3350000e+000
  2.8220000e+000  4.7900000e+000  5.3100000e+000
  2.8250000e+000  4.7800000e+000  5.3150000e+000
  2.8280000e+000  4.7650000e+000  5.3150000e+000
  2.8310000e+000  4.7900000e+000  5.3200000e+000
  2.8330000e+000  4.8000000e+000  5.3250000e+000
  2.8360000e+000  4.7950000e+000  5.3200000e+000
  2.8390000e+000  4.7850000e+000  5.3100000e+000
  2.8420000e+000  4.7950000e+000  5.3200000e+000
  2.8440000e+000  4.7900000e+000  5.3200000e+000
  2.8470000e+000  4.7950000e+000  5.3350000e+000
  2.8500000e+000  4.8000000e+000  5.3250000e+000
  2.8530000e+000  4.7900000e+000  5.3300000e+000
  2.8560000e+000  4.7800000e+000  5.3200000e+000
  2.8580000e+000  4.7750000e+000  5.3100000e+000
  2.8610000e+000  4.7950000e+000  5.3150000e+000
  2.8640000e+000  4.8100000e+000  5.3200000e+000
  2.8670000e+000  4.8100000e+000  5.3200000e+000
  2.8690000e+000  4.8100000e+000  5.3150000e+000
  2.8720000e+000  4.8100000e+000  5.3200000e+000
  2.8750000e+000  4.7950000e+000  5.3100000e+000
  2.8780000e+000  4.8000000e+000  5.3200000e+000
  2.8810000e+000  4.8150000e+000  5.3250000e+000
  2.8830000e+000  4.8200000e+000  5.3300000e+000
  2.8860000e+000  4.8150000e+000  5.3250000e+000
  2.8890000e+000  4.7850000e+000  5.3150000e+000
  2.8920000e+000  4.7850000e+000  5.3100000e+000
  2.8940000e+000  4.7850000e+000  5.3200000e+000
  2.8970000e+000  4.8150000e+000  5.3300000e+000
  2.9000000e+000  4.8300000e+000  5.3350000e+000
  2.9030000e+000  4.8200000e+000  5.3500000e+000
  2.9060000e+000  4.8050000e+000  5.3200000e+000
  2.9080000e+000  4.7850000e+000  5.3250000e+000
  2.9110000e+000  4.8000000e+000  5.3250000e+000
  2.9140000e+000  4.8150000e+000  5.3500000e+000
  2.9170000e+000  4.8300000e+000  5.3500000e+000
  2.9190000e+000  4.8250000e+000  5.3450000e+000
  2.9220000e+000  4.8200000e+000  5.3250000e+000
  2.9250000e+000  4.8000000e+000  5.3300000e+000
  2.9280000e+000  4.8150000e+000  5.3350000e+000
  2.9310000e+000  4.8350000e+000  5.3700000e+000
  2.9330000e+000  4.8400000e+000  5.3600000e+000
  2.9360000e+000  4.8450000e+000  5.3650000e+000
  2.9390000e+000  4.8550000e+000  5.3650000e+000
  2.9420000e+000  4.8700000e+000  5.3600000e+000
  2.9440000e+000  4.8900000e+000  5.4000000e+000
  2.9470000e+000  4.9000000e+000  5.4200000e+000
  2.9500000e+000  4.9100000e+000  5.4150000e+000
  2.9530000e+000  4.9250000e+000  5.4200000e+000
  2.9560000e+000  4.9300000e+000  5.4150000e+000
  2.9580000e+000  4.9400000e+000  5.4200000e+000
  2.9610000e+000  4.9550000e+000  5.4200000e+000
  2.9640000e+000  4.9850000e+000  5.4200000e+000
  2.9670000e+000  5.0100000e+000  5.4150000e+000
  2.9690000e+000  5.0300000e+000  5.3950000e+000
  2.9720000e+000  5.0250000e+000  5.3850000e+000
  2.9750000e+000  5.0200000e+000  5.3850000e+000
  2.9780000e+000  5.0100000e+000  5.3700000e+000
  2.9810000e+000  5.0050000e+000  5.3700000e+000
  2.9830000e+000  5.0300000e+000  5.3750000e+000
  2.9860000e+000  5.0450000e+000  5.3650000e+000
  2.9890000e+000  5.0450000e+000  5.3600000e+000
  2.9920000e+000  5.0500000e+000  5.3500000e+000
  2.9940000e+000  5.0650000e+000  5.3700000e+000
  2.9970000e+000  5.0800000e+000  5.3800000e+000
  3.0000000e+000  5.0550000e+000  5.3600000e+000
  3.0030000e+000  5.0050000e+000  5.3650000e+000
  3.0060000e+000  4.9550000e+000  5.3550000e+000
  3.0080000e+000  4.8950000e+000  5.3400000e+000
  3.0110000e+000  4.8750000e+000  5.3600000e+000
  3.0140000e+000  4.8350000e+000  5.3650000e+000
  3.0170000e+000  4.8150000e+000  5.3500000e+000
  3.0190000e+000  4.7700000e+000  5.3400000e+000
  3.0220000e+000  4.7550000e+000  5.3350000e+000
  3.0250000e+000  4.7500000e+000  5.3100000e+000
  3.0280000e+000  4.7650000e+000  5.3200000e+000
  3.0310000e+000  4.7700000e+000  5.3300000e+000
  3.0330000e+000  4.7750000e+000  5.3200000e+000
  3.0360000e+000  4.7750000e+000  5.3100000e+000
  3.0390000e+000  4.7600000e+000  5.3100000e+000
  3.0420000e+000  4.7600000e+000  5.3100000e+000
  3.0440000e+000  4.7700000e+000  5.3150000e+000
  3.0470000e+000  4.7800000e+000  5.3300000e+000
  3.0500000e+000  4.7850000e+000  5.3300000e+000
  3.0530000e+000  4.7650000e+000  5.3150000e+000
  3.0560000e+000  4.7550000e+000  5.3000000e+000
  3.0580000e+000  4.7400000e+000  5.3000000e+000
  3.0610000e+000  4.7500000e+000  5.3050000e+000
  3.0640000e+000  4.7650000e+000  5.3300000e+000
  3.0670000e+000  4.7900000e+000  5.3250000e+000
  3.0690000e+000  4.7800000e+000  5.3200000e+000
  3.0720000e+000  4.7700000e+000  5.2950000e+000
  3.0750000e+000  4.7650000e+000  5.3050000e+000
  3.0780000e+000  4.7650000e+000  5.3100000e+000
  3.0810000e+000  4.7700000e+000  5.3300000e+000
  3.0830000e+000  4.7800000e+000  5.3200000e+000
  3.0860000e+000  4.7750000e+000  5.3250000e+000
  3.0890000e+000  4.7650000e+000  5.3100000e+000
  3.0920000e+000  4.7600000e+000  5.3100000e+000
  3.0940000e+000  4.7700000e+000  5.3200000e+000
  3.0970000e+000  4.7700000e+000  5.3150000e+000
  3.1000000e+000  4.7900000e+000  5.3150000e+000
  3.1030000e+000  4.7850000e+000  5.3150000e+000
  3.1060000e+000  4.7650000e+000  5.3050000e+000
  3.1080000e+000  4.7550000e+000  5.2950000e+000
  3.1110000e+000  4.7650000e+000  5.3100000e+000
  3.1140000e+000  4.7650000e+000  5.3150000e+000
  3.1170000e+000  4.7700000e+000  5.3150000e+000
  3.1190000e+000  4.7750000e+000  5.3150000e+000
  3.1220000e+000  4.7800000e+000  5.3200000e+000
  3.1250000e+000  4.7800000e+000  5.3200000e+000
  3.1280000e+000  4.7700000e+000  5.3050000e+000
  3.1310000e+000  4.7600000e+000  5.2800000e+000
  3.1330000e+000  4.7500000e+000  5.2150000e+000
  3.1360000e+000  4.7400000e+000  5.1450000e+000
  3.1390000e+000  4.7750000e+000  5.0500000e+000
  3.1420000e+000  4.7950000e+000  4.9400000e+000
  3.1440000e+000  4.8400000e+000  4.8100000e+000
  3.1470000e+000  4.8800000e+000  4.6050000e+000
  3.1500000e+000  4.9000000e+000  4.3600000e+000
  3.1530000e+000  4.8750000e+000  4.0950000e+000
  3.1560000e+000  4.8000000e+000  3.9200000e+000
  3.1580000e+000  4.6800000e+000  3.8650000e+000
  3.1610000e+000  4.6050000e+000  3.8950000e+000
  3.1640000e+000  4.6050000e+000  3.9500000e+000
  3.1670000e+000  4.6100000e+000  3.9850000e+000
  3.1690000e+000  4.6200000e+000  4.0150000e+000
  3.1720000e+000  4.6150000e+000  4.0400000e+000
  3.1750000e+000  4.5650000e+000  4.0800000e+000
  3.1780000e+000  4.5200000e+000  4.1250000e+000
  3.1810000e+000  4.4850000e+000  4.1700000e+000
  3.1830000e+000  4.4700000e+000  4.1750000e+000
  3.1860000e+000  4.4450000e+000  4.2150000e+000
  3.1890000e+000  4.4150000e+000  4.2550000e+000
  3.1920000e+000  4.3750000e+000  4.2900000e+000
  3.1940000e+000  4.3350000e+000  4.3450000e+000
  3.1970000e+000  4.2750000e+000  4.4000000e+000
  3.2000000e+000  4.2500000e+000  4.4500000e+000
  3.2030000e+000  4.2200000e+000  4.4850000e+000
  3.2060000e+000  4.1850000e+000  4.5150000e+000
  3.2080000e+000  4.1750000e+000  4.5750000e+000
  3.2110000e+000  4.2100000e+000  4.6800000e+000
  3.2140000e+000  4.2500000e+000  4.7750000e+000
  3.2170000e+000  4.2750000e+000  4.8600000e+000
  3.2190000e+000  4.3000000e+000  4.9200000e+000
  3.2220000e+000  4.3550000e+000  4.9900000e+000
  3.2250000e+000  4.4300000e+000  5.0650000e+000
  3.2280000e+000  4.5100000e+000  5.1400000e+000
  3.2310000e+000  4.5700000e+000  5.2150000e+000
  3.2330000e+000  4.6050000e+000  5.2800000e+000
  3.2360000e+000  4.6450000e+000  5.3150000e+000
  3.2390000e+000  4.6800000e+000  5.3500000e+000
  3.2420000e+000  4.7350000e+000  5.3900000e+000
  3.2440000e+000  4.7500000e+000  5.4400000e+000
  3.2470000e+000  4.7900000e+000  5.4700000e+000
  3.2500000e+000  4.8150000e+000  5.5100000e+000
  3.2530000e+000  4.8400000e+000  5.5200000e+000
  3.2560000e+000  4.8400000e+000  5.5250000e+000
  3.2580000e+000  4.8250000e+000  5.5250000e+000
  3.2610000e+000  4.8150000e+000  5.5400000e+000
  3.2640000e+000  4.8300000e+000  5.5550000e+000
  3.2670000e+000  4.8400000e+000  5.5750000e+000
  3.2690000e+000  4.8300000e+000  5.5600000e+000
  3.2720000e+000  4.8300000e+000  5.5750000e+000
  3.2750000e+000  4.8300000e+000  5.5650000e+000
  3.2780000e+000  4.8350000e+000  5.5850000e+000
  3.2810000e+000  4.8450000e+000  5.6100000e+000
  3.2830000e+000  4.8500000e+000  5.6100000e+000
  3.2860000e+000  4.8350000e+000  5.5950000e+000
  3.2890000e+000  4.8400000e+000  5.6000000e+000
  3.2920000e+000  4.8200000e+000  5.5950000e+000
  3.2940000e+000  4.8200000e+000  5.6150000e+000
  3.2970000e+000  4.8500000e+000  5.6300000e+000
  3.3000000e+000  4.8650000e+000  5.6400000e+000
  3.3030000e+000  4.8600000e+000  5.6450000e+000
  3.3060000e+000  4.8600000e+000  5.6250000e+000
  3.3080000e+000  4.8400000e+000  5.6450000e+000
  3.3110000e+000  4.8500000e+000  5.6500000e+000
  3.3140000e+000  4.8500000e+000  5.6650000e+000
  3.3170000e+000  4.8650000e+000  5.6600000e+000
  3.3190000e+000  4.8500000e+000  5.6500000e+000
  3.3220000e+000  4.8600000e+000  5.6500000e+000
  3.3250000e+000  4.8400000e+000  5.6450000e+000
  3.3280000e+000  4.8450000e+000  5.6550000e+000
  3.3310000e+000  4.8500000e+000  5.6550000e+000
  3.3330000e+000  4.8700000e+000  5.6600000e+000
  3.3360000e+000  4.8800000e+000  5.6650000e+000
  3.3390000e+000  4.8850000e+000  5.6600000e+000
  3.3420000e+000  4.8550000e+000  5.6600000e+000
  3.3440000e+000  4.8550000e+000  5.6650000e+000
  3.3470000e+000  4.8750000e+000  5.6850000e+000
  3.3500000e+000  4.8750000e+000  5.6850000e+000
  3.3530000e+000  4.8800000e+000  5.6700000e+000
  3.3560000e+000  4.8800000e+000  5.6800000e+000
  3.3580000e+000  4.8750000e+000  5.6700000e+000
  3.3610000e+000  4.8850000e+000  5.6800000e+000
  3.3640000e+000  4.9150000e+000  5.6950000e+000
  3.3670000e+000  4.9350000e+000  5.6950000e+000
  3.3690000e+000  4.9200000e+000  5.7000000e+000
  3.3720000e+000  4.9150000e+000  5.6900000e+000
  3.3750000e+000  4.9000000e+000  5.6950000e+000
  3.3780000e+000  4.9050000e+000  5.7050000e+000
  3.3810000e+000  4.9150000e+000  5.7050000e+000
  3.3830000e+000  4.9200000e+000  5.7050000e+000
  3.3860000e+000  4.9200000e+000  5.7050000e+000
  3.3890000e+000  4.9250000e+000  5.6900000e+000
  3.3920000e+000  4.9250000e+000  5.6850000e+000
  3.3940000e+000  4.9350000e+000  5.6850000e+000
  3.3970000e+000  4.9400000e+000  5.7000000e+000
  3.4000000e+000  4.9400000e+000  5.6950000e+000
  3.4030000e+000  4.9500000e+000  5.6900000e+000
  3.4060000e+000  4.9500000e+000  5.6750000e+000
  3.4080000e+000  4.9300000e+000  5.6700000e+000
  3.4110000e+000  4.9250000e+000  5.6750000e+000
  3.4140000e+000  4.9600000e+000  5.6900000e+000
  3.4170000e+000  4.9700000e+000  5.6850000e+000
  3.4190000e+000  4.9850000e+000  5.6800000e+000
  3.4220000e+000  4.9600000e+000  5.6650000e+000
  3.4250000e+000  4.9500000e+000  5.6700000e+000
  3.4280000e+000  4.9600000e+000  5.6500000e+000
  3.4310000e+000  4.9700000e+000  5.6650000e+000
  3.4330000e+000  4.9900000e+000  5.6650000e+000
  3.4360000e+000  4.9900000e+000  5.6450000e+000
  3.4390000e+000  4.9700000e+000  5.6400000e+000
  3.4420000e+000  4.9650000e+000  5.6250000e+000
  3.4440000e+000  4.9600000e+000  5.6200000e+000
  3.4470000e+000  4.9700000e+000  5.6250000e+000
  3.4500000e+000  4.9600000e+000  5.6250000e+000
  3.4530000e+000  4.9600000e+000  5.6050000e+000
  3.4560000e+000  4.9700000e+000  5.5850000e+000
  3.4580000e+000  4.9750000e+000  5.5650000e+000
  3.4610000e+000  4.9700000e+000  5.5750000e+000
  3.4640000e+000  4.9700000e+000  5.5750000e+000
  3.4670000e+000  4.9800000e+000  5.5600000e+000
  3.4690000e+000  4.9650000e+000  5.5450000e+000
  3.4720000e+000  4.9700000e+000  5.5300000e+000
  3.4750000e+000  4.9450000e+000  5.5250000e+000
  3.4780000e+000  4.9400000e+000  5.5100000e+000
  3.4810000e+000  4.9500000e+000  5.5000000e+000
  3.4830000e+000  4.9450000e+000  5.4900000e+000
  3.4860000e+000  4.9400000e+000  5.4700000e+000
  3.4890000e+000  4.9200000e+000  5.4450000e+000
  3.4920000e+000  4.9050000e+000  5.4350000e+000
  3.4940000e+000  4.9050000e+000  5.4400000e+000
  3.4970000e+000  4.9100000e+000  5.4350000e+000
  3.5000000e+000  4.9200000e+000  5.4300000e+000
  3.5030000e+000  4.9100000e+000  5.4100000e+000
  3.5060000e+000  4.9050000e+000  5.4000000e+000
  3.5080000e+000  4.8850000e+000  5.3850000e+000
  3.5110000e+000  4.8750000e+000  5.3900000e+000
  3.5140000e+000  4.8800000e+000  5.3900000e+000
  3.5170000e+000  4.8700000e+000  5.4000000e+000
  3.5190000e+000  4.8650000e+000  5.3950000e+000
  3.5220000e+000  4.8700000e+000  5.3750000e+000
  3.5250000e+000  4.8550000e+000  5.3650000e+000
  3.5280000e+000  4.8600000e+000  5.3850000e+000
  3.5310000e+000  4.8700000e+000  5.3800000e+000
  3.5330000e+000  4.8650000e+000  5.3800000e+000
  3.5360000e+000  4.8800000e+000  5.3800000e+000
  3.5390000e+000  4.8800000e+000  5.3650000e+000
  3.5420000e+000  4.8650000e+000  5.3600000e+000
  3.5440000e+000  4.8550000e+000  5.3650000e+000
  3.5470000e+000  4.8500000e+000  5.3850000e+000
  3.5500000e+000  4.8650000e+000  5.3750000e+000
  3.5530000e+000  4.8650000e+000  5.3750000e+000
  3.5560000e+000  4.8700000e+000  5.3800000e+000
  3.5580000e+000  4.8700000e+000  5.3700000e+000
  3.5610000e+000  4.8650000e+000  5.3850000e+000
  3.5640000e+000  4.8600000e+000  5.3900000e+000
  3.5670000e+000  4.8750000e+000  5.3900000e+000
  3.5690000e+000  4.8700000e+000  5.4000000e+000
  3.5720000e+000  4.8700000e+000  5.3900000e+000
  3.5750000e+000  4.8450000e+000  5.3850000e+000
  3.5780000e+000  4.8550000e+000  5.4000000e+000
  3.5810000e+000  4.8550000e+000  5.4150000e+000
  3.5830000e+000  4.8700000e+000  5.4250000e+000
  3.5860000e+000  4.8650000e+000  5.4200000e+000
  3.5890000e+000  4.8500000e+000  5.4150000e+000
  3.5920000e+000  4.8450000e+000  5.4050000e+000
  3.5940000e+000  4.8500000e+000  5.4200000e+000
  3.5970000e+000  4.8400000e+000  5.4350000e+000
  3.6000000e+000  4.8550000e+000  5.4200000e+000
  3.6030000e+000  4.8550000e+000  5.4200000e+000
  3.6060000e+000  4.8400000e+000  5.4050000e+000
  3.6080000e+000  4.8350000e+000  5.4150000e+000
  3.6110000e+000  4.8300000e+000  5.4250000e+000
  3.6140000e+000  4.8500000e+000  5.4400000e+000
  3.6170000e+000  4.8600000e+000  5.4350000e+000
  3.6190000e+000  4.8450000e+000  5.4450000e+000
  3.6220000e+000  4.8200000e+000  5.4450000e+000
  3.6250000e+000  4.8250000e+000  5.4350000e+000
  3.6280000e+000  4.8450000e+000  5.4500000e+000
  3.6310000e+000  4.8450000e+000  5.4650000e+000
  3.6330000e+000  4.8450000e+000  5.4650000e+000
  3.6360000e+000  4.8450000e+000  5.4700000e+000
  3.6390000e+000  4.8300000e+000  5.4550000e+000
  3.6420000e+000  4.8050000e+000  5.4400000e+000
  3.6440000e+000  4.8150000e+000  5.4600000e+000
  3.6470000e+000  4.8050000e+000  5.4650000e+000
  3.6500000e+000  4.8300000e+000  5.4600000e+000
  3.6530000e+000  4.8350000e+000  5.4700000e+000
  3.6560000e+000  4.8150000e+000  5.4550000e+000
  3.6580000e+000  4.8100000e+000  5.4350000e+000
  3.6610000e+000  4.8000000e+000  5.4550000e+000
  3.6640000e+000  4.8150000e+000  5.4450000e+000
  3.6670000e+000  4.8050000e+000  5.4500000e+000
  3.6690000e+000  4.8100000e+000  5.4400000e+000
  3.6720000e+000  4.7750000e+000  5.4350000e+000
  3.6750000e+000  4.7650000e+000  5.4350000e+000
  3.6780000e+000  4.7700000e+000  5.4500000e+000
  3.6810000e+000  4.7850000e+000  5.4600000e+000
  3.6830000e+000  4.8050000e+000  5.4700000e+000
  3.6860000e+000  4.8050000e+000  5.4600000e+000
  3.6890000e+000  4.7700000e+000  5.4550000e+000
  3.6920000e+000  4.7700000e+000  5.4450000e+000
  3.6940000e+000  4.7850000e+000  5.4500000e+000
  3.6970000e+000  4.7850000e+000  5.4550000e+000
  3.7000000e+000  4.7950000e+000  5.4500000e+000
  3.7030000e+000  4.7950000e+000  5.4350000e+000
  3.7060000e+000  4.7800000e+000  5.4300000e+000
  3.7080000e+000  4.7700000e+000  5.4350000e+000
  3.7110000e+000  4.7650000e+000  5.4350000e+000
  3.7140000e+000  4.7700000e+000  5.4400000e+000
  3.7170000e+000  4.7850000e+000  5.4300000e+000
  3.7190000e+000  4.7850000e+000  5.4300000e+000
  3.7220000e+000  4.7800000e+000  5.4200000e+000
  3.7250000e+000  4.7450000e+000  5.4150000e+000
  3.7280000e+000  4.7500000e+000  5.4150000e+000
  3.7310000e+000  4.7750000e+000  5.4400000e+000
  3.7330000e+000  4.8100000e+000  5.4400000e+000
  3.7360000e+000  4.8150000e+000  5.4400000e+000
  3.7390000e+000  4.8000000e+000  5.4250000e+000
  3.7420000e+000  4.7850000e+000  5.4200000e+000
  3.7440000e+000  4.7900000e+000  5.4350000e+000
  3.7470000e+000  4.8050000e+000  5.4350000e+000
  3.7500000e+000  4.8200000e+000  5.4350000e+000
  3.7530000e+000  4.8300000e+000  5.4300000e+000
  3.7560000e+000  4.8150000e+000  5.4250000e+000
  3.7580000e+000  4.8000000e+000  5.4250000e+000
  3.7610000e+000  4.8100000e+000  5.4250000e+000
  3.7640000e+000  4.8000000e+000  5.4400000e+000
  3.7670000e+000  4.8100000e+000  5.4450000e+000
  3.7690000e+000  4.8050000e+000  5.4250000e+000
  3.7720000e+000  4.7900000e+000  5.4200000e+000
  3.7750000e+000  4.8000000e+000  5.4100000e+000
  3.7780000e+000  4.8000000e+000  5.4300000e+000
  3.7810000e+000  4.8100000e+000  5.4400000e+000
  3.7830000e+000  4.8300000e+000  5.4400000e+000
  3.7860000e+000  4.8150000e+000  5.4350000e+000
  3.7890000e+000  4.8200000e+000  5.4300000e+000
  3.7920000e+000  4.8050000e+000  5.4250000e+000
  3.7940000e+000  4.8050000e+000  5.4200000e+000
  3.7970000e+000  4.8000000e+000  5.4350000e+000
  3.8000000e+000  4.8100000e+000  5.4250000e+000
  3.8030000e+000  4.8150000e+000  5.4200000e+000
  3.8060000e+000  4.8150000e+000  5.4300000e+000
  3.8080000e+000  4.8100000e+000  5.4100000e+000
  3.8110000e+000  4.8250000e+000  5.4200000e+000
  3.8140000e+000  4.8400000e+000  5.4300000e+000
  3.8170000e+000  4.8400000e+000  5.4400000e+000
  3.8190000e+000  4.8300000e+000  5.4150000e+000
  3.8220000e+000  4.8050000e+000  5.4000000e+000
  3.8250000e+000  4.7800000e+000  5.4000000e+000
  3.8280000e+000  4.7800000e+000  5.4200000e+000
  3.8310000e+000  4.8050000e+000  5.4350000e+000
  3.8330000e+000  4.8500000e+000  5.4300000e+000
  3.8360000e+000  4.8600000e+000  5.4200000e+000
  3.8390000e+000  4.8500000e+000  5.4200000e+000
  3.8420000e+000  4.8300000e+000  5.4200000e+000
  3.8440000e+000  4.8350000e+000  5.4300000e+000
  3.8470000e+000  4.8300000e+000  5.4350000e+000
  3.8500000e+000  4.8400000e+000  5.4350000e+000
  3.8530000e+000  4.8400000e+000  5.4300000e+000
  3.8560000e+000  4.8200000e+000  5.4100000e+000
  3.8580000e+000  4.8200000e+000  5.4150000e+000
  3.8610000e+000  4.8100000e+000  5.4150000e+000
  3.8640000e+000  4.8300000e+000  5.4250000e+000
  3.8670000e+000  4.8400000e+000  5.4250000e+000
  3.8690000e+000  4.8350000e+000  5.4050000e+000
  3.8720000e+000  4.8300000e+000  5.4150000e+000
  3.8750000e+000  4.8150000e+000  5.4100000e+000
  3.8780000e+000  4.8100000e+000  5.4200000e+000
  3.8810000e+000  4.8400000e+000  5.4350000e+000
  3.8830000e+000  4.8600000e+000  5.4250000e+000
  3.8860000e+000  4.8650000e+000  5.4350000e+000
  3.8890000e+000  4.8800000e+000  5.4400000e+000
  3.8920000e+000  4.8750000e+000  5.4500000e+000
  3.8940000e+000  4.8850000e+000  5.4700000e+000
  3.8970000e+000  4.9000000e+000  5.4900000e+000
  3.9000000e+000  4.9050000e+000  5.4950000e+000
  3.9030000e+000  4.9100000e+000  5.5150000e+000
  3.9060000e+000  4.9200000e+000  5.5000000e+000
  3.9080000e+000  4.9350000e+000  5.5050000e+000
  3.9110000e+000  4.9500000e+000  5.5200000e+000
  3.9140000e+000  4.9800000e+000  5.5200000e+000
  3.9170000e+000  4.9950000e+000  5.5000000e+000
  3.9190000e+000  5.0050000e+000  5.4750000e+000
  3.9220000e+000  5.0150000e+000  5.4450000e+000
  3.9250000e+000  5.0200000e+000  5.4450000e+000
  3.9280000e+000  5.0400000e+000  5.4500000e+000
  3.9310000e+000  5.0550000e+000  5.4600000e+000
  3.9330000e+000  5.0650000e+000  5.4550000e+000
  3.9360000e+000  5.0600000e+000  5.4500000e+000
  3.9390000e+000  5.0600000e+000  5.4300000e+000
  3.9420000e+000  5.0600000e+000  5.4400000e+000
  3.9440000e+000  5.0550000e+000  5.4500000e+000
  3.9470000e+000  5.0600000e+000  5.4750000e+000
  3.9500000e+000  5.0650000e+000  5.4800000e+000
  3.9530000e+000  5.0500000e+000  5.4600000e+000
  3.9560000e+000  5.0300000e+000  5.4500000e+000
  3.9580000e+000  4.9750000e+000  5.4350000e+000
  3.9610000e+000  4.9300000e+000  5.4400000e+000
  3.9640000e+000  4.8950000e+000  5.4400000e+000
  3.9670000e+000  4.8500000e+000  5.4350000e+000
  3.9690000e+000  4.8100000e+000  5.4150000e+000
  3.9720000e+000  4.7750000e+000  5.3850000e+000
  3.9750000e+000  4.7600000e+000  5.3850000e+000
  3.9780000e+000  4.7600000e+000  5.3900000e+000
  3.9810000e+000  4.7750000e+000  5.4050000e+000
  3.9830000e+000  4.8000000e+000  5.4050000e+000
  3.9860000e+000  4.8050000e+000  5.3950000e+000
  3.9890000e+000  4.7950000e+000  5.3750000e+000
  3.9920000e+000  4.7800000e+000  5.3900000e+000
  3.9940000e+000  4.7750000e+000  5.3850000e+000
  3.9970000e+000  4.7750000e+000  5.4050000e+000
  4.0000000e+000  4.7800000e+000  5.3950000e+000
  4.0030000e+000  4.7750000e+000  5.4000000e+000
  4.0060000e+000  4.7500000e+000  5.3850000e+000
  4.0080000e+000  4.7550000e+000  5.3800000e+000
  4.0110000e+000  4.7750000e+000  5.3850000e+000
  4.0140000e+000  4.7850000e+000  5.3950000e+000
  4.0170000e+000  4.8050000e+000  5.4000000e+000
  4.0190000e+000  4.7950000e+000  5.3900000e+000
  4.0220000e+000  4.7750000e+000  5.3750000e+000
  4.0250000e+000  4.7500000e+000  5.3850000e+000
  4.0280000e+000  4.7600000e+000  5.3900000e+000
  4.0310000e+000  4.7850000e+000  5.3900000e+000
  4.0330000e+000  4.7800000e+000  5.3900000e+000
  4.0360000e+000  4.7800000e+000  5.3850000e+000
  4.0390000e+000  4.7850000e+000  5.3800000e+000
  4.0420000e+000  4.7600000e+000  5.3750000e+000
  4.0440000e+000  4.7600000e+000  5.3850000e+000
  4.0470000e+000  4.7700000e+000  5.3950000e+000
  4.0500000e+000  4.7900000e+000  5.3850000e+000
  4.0530000e+000  4.7850000e+000  5.3950000e+000
  4.0560000e+000  4.7950000e+000  5.3800000e+000
  4.0580000e+000  4.7850000e+000  5.3800000e+000
  4.0610000e+000  4.7800000e+000  5.4000000e+000
  4.0640000e+000  4.7750000e+000  5.4100000e+000
  4.0670000e+000  4.7950000e+000  5.4100000e+000
  4.0690000e+000  4.7950000e+000  5.4050000e+000
  4.0720000e+000  4.7800000e+000  5.3500000e+000
  4.0750000e+000  4.7450000e+000  5.2800000e+000
  4.0780000e+000  4.7300000e+000  5.2150000e+000
  4.0810000e+000  4.7500000e+000  5.1200000e+000
  4.0830000e+000  4.7900000e+000  4.9950000e+000
  4.0860000e+000  4.8100000e+000  4.8150000e+000
  4.0890000e+000  4.8200000e+000  4.5600000e+000
  4.0920000e+000  4.8300000e+000  4.2750000e+000
  4.0940000e+000  4.8250000e+000  4.0100000e+000
  4.0970000e+000  4.7750000e+000  3.8750000e+000
  4.1000000e+000  4.6750000e+000  3.8650000e+000
  4.1030000e+000  4.6250000e+000  3.9150000e+000
  4.1060000e+000  4.5950000e+000  3.9500000e+000
  4.1080000e+000  4.5900000e+000  3.9900000e+000
  4.1110000e+000  4.6050000e+000  4.0400000e+000
  4.1140000e+000  4.5950000e+000  4.0950000e+000
  4.1170000e+000  4.5800000e+000  4.1550000e+000
  4.1190000e+000  4.5250000e+000  4.1750000e+000
  4.1220000e+000  4.4800000e+000  4.1950000e+000
  4.1250000e+000  4.4300000e+000  4.1950000e+000
  4.1280000e+000  4.4100000e+000  4.2500000e+000
  4.1310000e+000  4.3900000e+000  4.3150000e+000
  4.1330000e+000  4.3600000e+000  4.3650000e+000
  4.1360000e+000  4.2950000e+000  4.4050000e+000
  4.1390000e+000  4.2450000e+000  4.4600000e+000
  4.1420000e+000  4.2050000e+000  4.5200000e+000
  4.1440000e+000  4.2000000e+000  4.5600000e+000
  4.1470000e+000  4.2050000e+000  4.6400000e+000
  4.1500000e+000  4.2400000e+000  4.7200000e+000
  4.1530000e+000  4.2550000e+000  4.8200000e+000
  4.1560000e+000  4.2700000e+000  4.9100000e+000
  4.1580000e+000  4.2850000e+000  4.9950000e+000
  4.1610000e+000  4.3500000e+000  5.0900000e+000
  4.1640000e+000  4.4550000e+000  5.1900000e+000
  4.1670000e+000  4.5350000e+000  5.2650000e+000
  4.1690000e+000  4.5900000e+000  5.3350000e+000
  4.1720000e+000  4.6350000e+000  5.3850000e+000
  4.1750000e+000  4.6650000e+000  5.4450000e+000
  4.1780000e+000  4.7150000e+000  5.5300000e+000
  4.1810000e+000  4.7650000e+000  5.5700000e+000
  4.1830000e+000  4.7950000e+000  5.6100000e+000
  4.1860000e+000  4.8200000e+000  5.6050000e+000
  4.1890000e+000  4.8250000e+000  5.6200000e+000
  4.1920000e+000  4.8200000e+000  5.6400000e+000
  4.1940000e+000  4.8200000e+000  5.6500000e+000
  4.1970000e+000  4.8300000e+000  5.6800000e+000
  4.2000000e+000  4.8450000e+000  5.6850000e+000
  4.2030000e+000  4.8400000e+000  5.7000000e+000
  4.2060000e+000  4.8350000e+000  5.6900000e+000
  4.2080000e+000  4.8350000e+000  5.7050000e+000
  4.2110000e+000  4.8550000e+000  5.7300000e+000
  4.2140000e+000  4.8750000e+000  5.7450000e+000
  4.2170000e+000  4.8750000e+000  5.7600000e+000
  4.2190000e+000  4.8700000e+000  5.7500000e+000
  4.2220000e+000  4.8400000e+000  5.7500000e+000
  4.2250000e+000  4.8200000e+000  5.7600000e+000
  4.2280000e+000  4.8450000e+000  5.7750000e+000
  4.2310000e+000  4.8900000e+000  5.7900000e+000
  4.2330000e+000  4.9050000e+000  5.7800000e+000
  4.2360000e+000  4.9100000e+000  5.7950000e+000
  4.2390000e+000  4.9000000e+000  5.7750000e+000
  4.2420000e+000  4.8800000e+000  5.7700000e+000
  4.2440000e+000  4.8700000e+000  5.7900000e+000
  4.2470000e+000  4.8650000e+000  5.8000000e+000
  4.2500000e+000  4.8750000e+000  5.7950000e+000
  4.2530000e+000  4.8800000e+000  5.7950000e+000
  4.2560000e+000  4.8700000e+000  5.7950000e+000
  4.2580000e+000  4.8750000e+000  5.7900000e+000
  4.2610000e+000  4.8750000e+000  5.8150000e+000
  4.2640000e+000  4.8850000e+000  5.8250000e+000
  4.2670000e+000  4.8900000e+000  5.8200000e+000
  4.2690000e+000  4.9000000e+000  5.8100000e+000
  4.2720000e+000  4.8950000e+000  5.8100000e+000
  4.2750000e+000  4.8900000e+000  5.8200000e+000
  4.2780000e+000  4.9150000e+000  5.8350000e+000
  4.2810000e+000  4.9200000e+000  5.8400000e+000
  4.2830000e+000  4.9300000e+000  5.8250000e+000
  4.2860000e+000  4.9350000e+000  5.8300000e+000
  4.2890000e+000  4.9400000e+000  5.8250000e+000
  4.2920000e+000  4.9250000e+000  5.8350000e+000
  4.2940000e+000  4.9100000e+000  5.8350000e+000
  4.2970000e+000  4.9050000e+000  5.8500000e+000
  4.3000000e+000  4.9300000e+000  5.8500000e+000
  4.3030000e+000  4.9400000e+000  5.8350000e+000
  4.3060000e+000  4.9450000e+000  5.8400000e+000
  4.3080000e+000  4.9350000e+000  5.8350000e+000
  4.3110000e+000  4.9250000e+000  5.8500000e+000
  4.3140000e+000  4.9400000e+000  5.8600000e+000
  4.3170000e+000  4.9600000e+000  5.8550000e+000
  4.3190000e+000  4.9750000e+000  5.8600000e+000
  4.3220000e+000  4.9600000e+000  5.8600000e+000
  4.3250000e+000  4.9550000e+000  5.8400000e+000
  4.3280000e+000  4.9750000e+000  5.8350000e+000
  4.3310000e+000  4.9750000e+000  5.8650000e+000
  4.3330000e+000  4.9900000e+000  5.8550000e+000
  4.3360000e+000  4.9600000e+000  5.8550000e+000
  4.3390000e+000  4.9500000e+000  5.8350000e+000
  4.3420000e+000  4.9350000e+000  5.8500000e+000
  4.3440000e+000  4.9600000e+000  5.8400000e+000
  4.3470000e+000  5.0050000e+000  5.8450000e+000
  4.3500000e+000  5.0200000e+000  5.8350000e+000
  4.3530000e+000  5.0150000e+000  5.8250000e+000
  4.3560000e+000  4.9950000e+000  5.8100000e+000
  4.3580000e+000  4.9850000e+000  5.8100000e+000
  4.3610000e+000  5.0150000e+000  5.8150000e+000
  4.3640000e+000  5.0500000e+000  5.8250000e+000
  4.3670000e+000  5.0750000e+000  5.8250000e+000
  4.3690000e+000  5.0750000e+000  5.8000000e+000
  4.3720000e+000  5.0200000e+000  5.7750000e+000
  4.3750000e+000  5.0050000e+000  5.7750000e+000
  4.3780000e+000  5.0150000e+000  5.7800000e+000
  4.3810000e+000  5.0250000e+000  5.7750000e+000
  4.3830000e+000  5.0500000e+000  5.7750000e+000
  4.3860000e+000  5.0450000e+000  5.7500000e+000
  4.3890000e+000  5.0300000e+000  5.7200000e+000
  4.3920000e+000  5.0050000e+000  5.7100000e+000
  4.3940000e+000  4.9900000e+000  5.7000000e+000
  4.3970000e+000  4.9950000e+000  5.6900000e+000
  4.4000000e+000  5.0250000e+000  5.6750000e+000
  4.4030000e+000  5.0150000e+000  5.6650000e+000
  4.4060000e+000  4.9750000e+000  5.6350000e+000
  4.4080000e+000  4.9950000e+000  5.6250000e+000
  4.4110000e+000  5.0200000e+000  5.6300000e+000
  4.4140000e+000  5.0200000e+000  5.6250000e+000
  4.4170000e+000  5.0000000e+000  5.6250000e+000
  4.4190000e+000  4.9650000e+000  5.5900000e+000
  4.4220000e+000  4.9550000e+000  5.5600000e+000
  4.4250000e+000  4.9450000e+000  5.5700000e+000
  4.4280000e+000  4.9350000e+000  5.5800000e+000
  4.4310000e+000  4.9500000e+000  5.5950000e+000
  4.4330000e+000  4.9500000e+000  5.5850000e+000
  4.4360000e+000  4.9250000e+000  5.5650000e+000
  4.4390000e+000  4.8850000e+000  5.5450000e+000
  4.4420000e+000  4.8800000e+000  5.5450000e+000
  4.4440000e+000  4.9200000e+000  5.5550000e+000
  4.4470000e+000  4.9550000e+000  5.5700000e+000
  4.4500000e+000  4.9700000e+000  5.5600000e+000
  4.4530000e+000  4.9400000e+000  5.5600000e+000
  4.4560000e+000  4.9150000e+000  5.5550000e+000
  4.4580000e+000  4.9000000e+000  5.5550000e+000
  4.4610000e+000  4.9350000e+000  5.5650000e+000
  4.4640000e+000  4.9500000e+000  5.5800000e+000
  4.4670000e+000  4.9600000e+000  5.5700000e+000
  4.4690000e+000  4.9600000e+000  5.5600000e+000
  4.4720000e+000  4.9300000e+000  5.5550000e+000
  4.4750000e+000  4.8950000e+000  5.5500000e+000
  4.4780000e+000  4.9000000e+000  5.5750000e+000
  4.4810000e+000  4.9200000e+000  5.5950000e+000
  4.4830000e+000  4.9250000e+000  5.5900000e+000
  4.4860000e+000  4.9050000e+000  5.5900000e+000
  4.4890000e+000  4.9300000e+000  5.5850000e+000
  4.4920000e+000  4.9200000e+000  5.5750000e+000
  4.4940000e+000  4.9100000e+000  5.5800000e+000
  4.4970000e+000  4.9050000e+000  5.5900000e+000
  4.5000000e+000  4.9100000e+000  5.5950000e+000
  4.5030000e+000  4.9050000e+000  5.6000000e+000
  4.5060000e+000  4.9000000e+000  5.5750000e+000
  4.5080000e+000  4.9150000e+000  5.5850000e+000
  4.5110000e+000  4.9250000e+000  5.6000000e+000
  4.5140000e+000  4.9450000e+000  5.6100000e+000
  4.5170000e+000  4.9700000e+000  5.6050000e+000
  4.5190000e+000  4.9500000e+000  5.6100000e+000
  4.5220000e+000  4.9200000e+000  5.5950000e+000
  4.5250000e+000  4.8900000e+000  5.5950000e+000
  4.5280000e+000  4.8850000e+000  5.6200000e+000
  4.5310000e+000  4.8950000e+000  5.6300000e+000
  4.5330000e+000  4.9100000e+000  5.6300000e+000
  4.5360000e+000  4.9100000e+000  5.6250000e+000
  4.5390000e+000  4.9050000e+000  5.6050000e+000
  4.5420000e+000  4.8900000e+000  5.6100000e+000
  4.5440000e+000  4.8950000e+000  5.6300000e+000
  4.5470000e+000  4.9000000e+000  5.6350000e+000
  4.5500000e+000  4.8950000e+000  5.6300000e+000
  4.5530000e+000  4.8850000e+000  5.6250000e+000
  4.5560000e+000  4.8800000e+000  5.6200000e+000
  4.5580000e+000  4.8750000e+000  5.6100000e+000
  4.5610000e+000  4.8800000e+000  5.6150000e+000
  4.5640000e+000  4.8750000e+000  5.6450000e+000
  4.5670000e+000  4.8700000e+000  5.6350000e+000
  4.5690000e+000  4.8600000e+000  5.6250000e+000
  4.5720000e+000  4.8450000e+000  5.6250000e+000
  4.5750000e+000  4.8300000e+000  5.6300000e+000
  4.5780000e+000  4.8500000e+000  5.6300000e+000
  4.5810000e+000  4.8900000e+000  5.6350000e+000
  4.5830000e+000  4.8700000e+000  5.6300000e+000
  4.5860000e+000  4.8400000e+000  5.6250000e+000
  4.5890000e+000  4.8150000e+000  5.6100000e+000
  4.5920000e+000  4.8250000e+000  5.6100000e+000
  4.5940000e+000  4.8100000e+000  5.6000000e+000
  4.5970000e+000  4.7900000e+000  5.6150000e+000
  4.6000000e+000  4.7700000e+000  5.6100000e+000
  4.6030000e+000  4.7800000e+000  5.6100000e+000
  4.6060000e+000  4.7750000e+000  5.6000000e+000
  4.6080000e+000  4.7450000e+000  5.5900000e+000
  4.6110000e+000  4.7100000e+000  5.5950000e+000
  4.6140000e+000  4.7750000e+000  5.6100000e+000
  4.6170000e+000  4.8600000e+000  5.6100000e+000
  4.6190000e+000  4.8700000e+000  5.5900000e+000
  4.6220000e+000  4.8200000e+000  5.5850000e+000
  4.6250000e+000  4.8200000e+000  5.5950000e+000
  4.6280000e+000  4.8450000e+000  5.6100000e+000
  4.6310000e+000  4.8750000e+000  5.6100000e+000
  4.6330000e+000  4.8900000e+000  5.5950000e+000
  4.6360000e+000  4.8750000e+000  5.5900000e+000
  4.6390000e+000  4.8400000e+000  5.5700000e+000
  4.6420000e+000  4.8350000e+000  5.5600000e+000
  4.6440000e+000  4.8850000e+000  5.5600000e+000
  4.6470000e+000  4.9250000e+000  5.5850000e+000
  4.6500000e+000  4.9200000e+000  5.5800000e+000
  4.6530000e+000  4.8950000e+000  5.5800000e+000
  4.6560000e+000  4.8800000e+000  5.5700000e+000
  4.6580000e+000  4.8800000e+000  5.5500000e+000
  4.6610000e+000  4.8900000e+000  5.5500000e+000
  4.6640000e+000  4.8950000e+000  5.5750000e+000
  4.6670000e+000  4.8900000e+000  5.5650000e+000
  4.6690000e+000  4.8850000e+000  5.5650000e+000
  4.6720000e+000  4.8750000e+000  5.5500000e+000
  4.6750000e+000  4.8550000e+000  5.5450000e+000
  4.6780000e+000  4.8700000e+000  5.5600000e+000
  4.6810000e+000  4.9000000e+000  5.5700000e+000
  4.6830000e+000  4.8950000e+000  5.5700000e+000
  4.6860000e+000  4.9000000e+000  5.5600000e+000
  4.6890000e+000  4.8800000e+000  5.5550000e+000
  4.6920000e+000  4.8650000e+000  5.5400000e+000
  4.6940000e+000  4.8600000e+000  5.5550000e+000
  4.6970000e+000  4.8850000e+000  5.5600000e+000
  4.7000000e+000  4.8950000e+000  5.5550000e+000
  4.7030000e+000  4.8900000e+000  5.5500000e+000
  4.7060000e+000  4.8750000e+000  5.5550000e+000
  4.7080000e+000  4.8750000e+000  5.5450000e+000
  4.7110000e+000  4.8750000e+000  5.5500000e+000
  4.7140000e+000  4.8900000e+000  5.5650000e+000
  4.7170000e+000  4.8900000e+000  5.5450000e+000
  4.7190000e+000  4.8950000e+000  5.5500000e+000
  4.7220000e+000  4.8750000e+000  5.5450000e+000
  4.7250000e+000  4.8650000e+000  5.5450000e+000
  4.7280000e+000  4.8700000e+000  5.5600000e+000
  4.7310000e+000  4.8850000e+000  5.5750000e+000
  4.7330000e+000  4.9100000e+000  5.5750000e+000
  4.7360000e+000  4.9000000e+000  5.5700000e+000
  4.7390000e+000  4.8650000e+000  5.5600000e+000
  4.7420000e+000  4.8550000e+000  5.5500000e+000
  4.7440000e+000  4.8550000e+000  5.5450000e+000
  4.7470000e+000  4.8600000e+000  5.5550000e+000
  4.7500000e+000  4.8900000e+000  5.5600000e+000
  4.7530000e+000  4.8950000e+000  5.5600000e+000
  4.7560000e+000  4.8950000e+000  5.5500000e+000
  4.7580000e+000  4.8500000e+000  5.5450000e+000
  4.7610000e+000  4.8650000e+000  5.5450000e+000
  4.7640000e+000  4.8550000e+000  5.5650000e+000
  4.7670000e+000  4.8600000e+000  5.5450000e+000
  4.7690000e+000  4.8500000e+000  5.5550000e+000
  4.7720000e+000  4.8700000e+000  5.5400000e+000
  4.7750000e+000  4.8850000e+000  5.5500000e+000
  4.7780000e+000  4.8950000e+000  5.5600000e+000
  4.7810000e+000  4.8700000e+000  5.5650000e+000
  4.7830000e+000  4.8350000e+000  5.5600000e+000
  4.7860000e+000  4.8200000e+000  5.5600000e+000
  4.7890000e+000  4.8500000e+000  5.5550000e+000
  4.7920000e+000  4.9150000e+000  5.5600000e+000
  4.7940000e+000  5.0000000e+000  5.5650000e+000
  4.7970000e+000  5.0150000e+000  5.5850000e+000
  4.8000000e+000  4.9750000e+000  5.5950000e+000
  4.8030000e+000  4.9750000e+000  5.6000000e+000
  4.8060000e+000  4.9800000e+000  5.5950000e+000
  4.8080000e+000  4.9750000e+000  5.6100000e+000
  4.8110000e+000  4.9700000e+000  5.6250000e+000
  4.8140000e+000  4.9600000e+000  5.6400000e+000
  4.8170000e+000  4.9750000e+000  5.6550000e+000
  4.8190000e+000  5.0100000e+000  5.6550000e+000
  4.8220000e+000  5.0300000e+000  5.6450000e+000
  4.8250000e+000  5.0250000e+000  5.6400000e+000
  4.8280000e+000  5.0400000e+000  5.6650000e+000
  4.8310000e+000  5.0550000e+000  5.6500000e+000
  4.8330000e+000  5.0750000e+000  5.6300000e+000
  4.8360000e+000  5.0850000e+000  5.6200000e+000
  4.8390000e+000  5.0750000e+000  5.6100000e+000
  4.8420000e+000  5.0850000e+000  5.6050000e+000
  4.8440000e+000  5.1050000e+000  5.6100000e+000
  4.8470000e+000  5.1150000e+000  5.6100000e+000
  4.8500000e+000  5.1200000e+000  5.6050000e+000
  4.8530000e+000  5.1050000e+000  5.6000000e+000
  4.8560000e+000  5.1200000e+000  5.5900000e+000
  4.8580000e+000  5.1250000e+000  5.5750000e+000
  4.8610000e+000  5.1300000e+000  5.6050000e+000
  4.8640000e+000  5.1300000e+000  5.6200000e+000
  4.8670000e+000  5.1250000e+000  5.5950000e+000
  4.8690000e+000  5.0900000e+000  5.5900000e+000
  4.8720000e+000  5.0400000e+000  5.5750000e+000
  4.8750000e+000  4.9900000e+000  5.5700000e+000
  4.8780000e+000  4.9550000e+000  5.5750000e+000
  4.8810000e+000  4.9150000e+000  5.5700000e+000
  4.8830000e+000  4.8700000e+000  5.5600000e+000
  4.8860000e+000  4.8400000e+000  5.5550000e+000
  4.8890000e+000  4.8350000e+000  5.5350000e+000
  4.8920000e+000  4.8450000e+000  5.5400000e+000
  4.8940000e+000  4.8800000e+000  5.5350000e+000
  4.8970000e+000  4.9000000e+000  5.5600000e+000
  4.9000000e+000  4.8750000e+000  5.5550000e+000
  4.9030000e+000  4.8400000e+000  5.5350000e+000
  4.9060000e+000  4.8050000e+000  5.5250000e+000
  4.9080000e+000  4.7900000e+000  5.5200000e+000
  4.9110000e+000  4.8200000e+000  5.5250000e+000
  4.9140000e+000  4.8550000e+000  5.5350000e+000
  4.9170000e+000  4.8700000e+000  5.5350000e+000
  4.9190000e+000  4.8550000e+000  5.5300000e+000
  4.9220000e+000  4.8100000e+000  5.5150000e+000
  4.9250000e+000  4.7550000e+000  5.5150000e+000
  4.9280000e+000  4.7300000e+000  5.5250000e+000
  4.9310000e+000  4.7300000e+000  5.5400000e+000
  4.9330000e+000  4.7600000e+000  5.5400000e+000
  4.9360000e+000  4.8200000e+000  5.5400000e+000
  4.9390000e+000  4.8650000e+000  5.5300000e+000
  4.9420000e+000  4.8500000e+000  5.5350000e+000
  4.9440000e+000  4.8250000e+000  5.5450000e+000
  4.9470000e+000  4.8350000e+000  5.5650000e+000
  4.9500000e+000  4.8150000e+000  5.5450000e+000
  4.9530000e+000  4.7950000e+000  5.5300000e+000
  4.9560000e+000  4.8400000e+000  5.5250000e+000
  4.9580000e+000  4.8900000e+000  5.5250000e+000
  4.9610000e+000  4.9150000e+000  5.5450000e+000
  4.9640000e+000  4.8900000e+000  5.5350000e+000
  4.9670000e+000  4.8650000e+000  5.5350000e+000
  4.9690000e+000  4.8650000e+000  5.5300000e+000
  4.9720000e+000  4.8500000e+000  5.5100000e+000
  4.9750000e+000  4.8200000e+000  5.5200000e+000
  4.9780000e+000  4.8100000e+000  5.5150000e+000
  4.9810000e+000  4.8400000e+000  5.5300000e+000
  4.9830000e+000  4.8550000e+000  5.5500000e+000
  4.9860000e+000  4.8600000e+000  5.5400000e+000
  4.9890000e+000  4.8200000e+000  5.4750000e+000
  4.9920000e+000  4.7350000e+000  5.3750000e+000
  4.9940000e+000  4.6900000e+000  5.2300000e+000
  4.9970000e+000  4.7200000e+000  5.0600000e+000
  5.0000000e+000  4.7600000e+000  4.8200000e+000
  5.0030000e+000  4.7400000e+000  4.5650000e+000
  5.0060000e+000  4.7200000e+000  4.2450000e+000
  5.0080000e+000  4.6950000e+000  3.9550000e+000
  5.0110000e+000  4.6550000e+000  3.7350000e+000
  5.0140000e+000  4.6100000e+000  3.6600000e+000
  5.0170000e+000  4.5600000e+000  3.6900000e+000
  5.0190000e+000  4.5300000e+000  3.7600000e+000
  5.0220000e+000  4.5450000e+000  3.8050000e+000
  5.0250000e+000  4.5300000e+000  3.8550000e+000
  5.0280000e+000  4.5100000e+000  3.9200000e+000
  5.0310000e+000  4.4900000e+000  3.9900000e+000
  5.0330000e+000  4.4450000e+000  4.0200000e+000
  5.0360000e+000  4.4150000e+000  4.0450000e+000
  5.0390000e+000  4.3900000e+000  4.0600000e+000
  5.0420000e+000  4.3850000e+000  4.1300000e+000
  5.0440000e+000  4.3700000e+000  4.2000000e+000
  5.0470000e+000  4.3400000e+000  4.3000000e+000
  5.0500000e+000  4.2800000e+000  4.3650000e+000
  5.0530000e+000  4.2150000e+000  4.4300000e+000
  5.0560000e+000  4.1750000e+000  4.4900000e+000
  5.0580000e+000  4.1650000e+000  4.5550000e+000
  5.0610000e+000  4.2200000e+000  4.6500000e+000
  5.0640000e+000  4.2950000e+000  4.7850000e+000
  5.0670000e+000  4.3600000e+000  4.9000000e+000
  5.0690000e+000  4.3900000e+000  5.0250000e+000
  5.0720000e+000  4.4200000e+000  5.1100000e+000
  5.0750000e+000  4.4850000e+000  5.2100000e+000
  5.0780000e+000  4.5550000e+000  5.3100000e+000
  5.0810000e+000  4.6200000e+000  5.4050000e+000
  5.0830000e+000  4.6700000e+000  5.4800000e+000
  5.0860000e+000  4.7150000e+000  5.5600000e+000
  5.0890000e+000  4.8050000e+000  5.6300000e+000
  5.0920000e+000  4.8850000e+000  5.7050000e+000
  5.0940000e+000  4.9050000e+000  5.7500000e+000
  5.0970000e+000  4.9100000e+000  5.7950000e+000
  5.1000000e+000  4.9250000e+000  5.8150000e+000
  5.1030000e+000  4.9250000e+000  5.8400000e+000
  5.1060000e+000  4.9250000e+000  5.8400000e+000
  5.1080000e+000  4.8950000e+000  5.8550000e+000
  5.1110000e+000  4.9050000e+000  5.8750000e+000
  5.1140000e+000  4.9150000e+000  5.9000000e+000
  5.1170000e+000  4.9450000e+000  5.8950000e+000
  5.1190000e+000  4.9300000e+000  5.9100000e+000
  5.1220000e+000  4.9050000e+000  5.9100000e+000
  5.1250000e+000  4.8850000e+000  5.9250000e+000
  5.1280000e+000  4.8900000e+000  5.9250000e+000
  5.1310000e+000  4.9150000e+000  5.9500000e+000
  5.1330000e+000  4.9300000e+000  5.9500000e+000
  5.1360000e+000  4.9400000e+000  5.9550000e+000
  5.1390000e+000  4.9550000e+000  5.9500000e+000
  5.1420000e+000  4.9700000e+000  5.9600000e+000
  5.1440000e+000  4.9700000e+000  5.9750000e+000
  5.1470000e+000  4.9450000e+000  5.9850000e+000
  5.1500000e+000  4.9050000e+000  5.9900000e+000
  5.1530000e+000  4.8600000e+000  5.9800000e+000
  5.1560000e+000  4.8850000e+000  5.9900000e+000
  5.1580000e+000  4.9350000e+000  6.0000000e+000
  5.1610000e+000  5.0050000e+000  6.0150000e+000
  5.1640000e+000  5.0450000e+000  6.0350000e+000
  5.1670000e+000  5.0550000e+000  6.0400000e+000
  5.1690000e+000  5.0200000e+000  6.0200000e+000
  5.1720000e+000  4.9950000e+000  6.0000000e+000
  5.1750000e+000  4.9800000e+000  6.0050000e+000
  5.1780000e+000  4.9550000e+000  6.0200000e+000
  5.1810000e+000  4.9800000e+000  6.0350000e+000
  5.1830000e+000  4.9750000e+000  6.0350000e+000
  5.1860000e+000  4.9850000e+000  6.0300000e+000
  5.1890000e+000  4.9900000e+000  6.0250000e+000
  5.1920000e+000  4.9900000e+000  6.0250000e+000
  5.1940000e+000  4.9950000e+000  6.0400000e+000
  5.1970000e+000  5.0000000e+000  6.0550000e+000
  5.2000000e+000  5.0100000e+000  6.0550000e+000
  5.2030000e+000  5.0100000e+000  6.0550000e+000
  5.2060000e+000  5.0100000e+000  6.0550000e+000
  5.2080000e+000  4.9900000e+000  6.0550000e+000
  5.2110000e+000  5.0000000e+000  6.0650000e+000
  5.2140000e+000  5.0250000e+000  6.0850000e+000
  5.2170000e+000  5.0500000e+000  6.0850000e+000
  5.2190000e+000  5.0600000e+000  6.0900000e+000
  5.2220000e+000  5.0600000e+000  6.0700000e+000
  5.2250000e+000  5.0600000e+000  6.0700000e+000
  5.2280000e+000  5.0450000e+000  6.0750000e+000
  5.2310000e+000  5.0400000e+000  6.0750000e+000
  5.2330000e+000  5.0450000e+000  6.0900000e+000
  5.2360000e+000  5.0500000e+000  6.0750000e+000
  5.2390000e+000  5.0550000e+000  6.0800000e+000
  5.2420000e+000  5.0550000e+000  6.0600000e+000
  5.2440000e+000  5.0550000e+000  6.0750000e+000
  5.2470000e+000  5.0500000e+000  6.0800000e+000
  5.2500000e+000  5.0500000e+000  6.0750000e+000
  5.2530000e+000  5.0450000e+000  6.0650000e+000
  5.2560000e+000  5.0850000e+000  6.0650000e+000
  5.2580000e+000  5.1050000e+000  6.0650000e+000
  5.2610000e+000  5.0900000e+000  6.0700000e+000
  5.2640000e+000  5.0650000e+000  6.0700000e+000
  5.2670000e+000  5.0750000e+000  6.0750000e+000
  5.2690000e+000  5.0950000e+000  6.0600000e+000
  5.2720000e+000  5.1050000e+000  6.0500000e+000
  5.2750000e+000  5.1000000e+000  6.0400000e+000
  5.2780000e+000  5.1150000e+000  6.0450000e+000
  5.2810000e+000  5.1250000e+000  6.0350000e+000
  5.2830000e+000  5.1100000e+000  6.0200000e+000
  5.2860000e+000  5.1100000e+000  6.0050000e+000
  5.2890000e+000  5.1100000e+000  5.9950000e+000
  5.2920000e+000  5.1100000e+000  5.9750000e+000
  5.2940000e+000  5.1050000e+000  5.9650000e+000
  5.2970000e+000  5.1100000e+000  5.9700000e+000
  5.3000000e+000  5.1100000e+000  5.9550000e+000
  5.3030000e+000  5.0800000e+000  5.9350000e+000
  5.3060000e+000  5.0550000e+000  5.8950000e+000
  5.3080000e+000  5.0400000e+000  5.8800000e+000
  5.3110000e+000  5.0300000e+000  5.8800000e+000
  5.3140000e+000  5.0300000e+000  5.8800000e+000
  5.3170000e+000  5.0650000e+000  5.8700000e+000
  5.3190000e+000  5.0850000e+000  5.8350000e+000
  5.3220000e+000  5.0800000e+000  5.8200000e+000
  5.3250000e+000  5.0450000e+000  5.8000000e+000
  5.3280000e+000  5.0200000e+000  5.7950000e+000
  5.3310000e+000  5.0300000e+000  5.7950000e+000
  5.3330000e+000  5.0450000e+000  5.7750000e+000
  5.3360000e+000  5.0500000e+000  5.7750000e+000
  5.3390000e+000  5.0350000e+000  5.7600000e+000
  5.3420000e+000  5.0050000e+000  5.7600000e+000
  5.3440000e+000  4.9900000e+000  5.7550000e+000
  5.3470000e+000  4.9950000e+000  5.7500000e+000
  5.3500000e+000  4.9950000e+000  5.7300000e+000
  5.3530000e+000  4.9850000e+000  5.7250000e+000
  5.3560000e+000  4.9600000e+000  5.7100000e+000
  5.3580000e+000  4.9500000e+000  5.7150000e+000
  5.3610000e+000  4.9600000e+000  5.7250000e+000
  5.3640000e+000  4.9600000e+000  5.7200000e+000
  5.3670000e+000  4.9550000e+000  5.7200000e+000
  5.3690000e+000  4.9650000e+000  5.7350000e+000
  5.3720000e+000  4.9500000e+000  5.7150000e+000
  5.3750000e+000  4.9400000e+000  5.7050000e+000
  5.3780000e+000  4.9400000e+000  5.7150000e+000
  5.3810000e+000  4.9450000e+000  5.7350000e+000
  5.3830000e+000  4.9400000e+000  5.7400000e+000
  5.3860000e+000  4.9350000e+000  5.7350000e+000
  5.3890000e+000  4.9250000e+000  5.7250000e+000
  5.3920000e+000  4.9150000e+000  5.7300000e+000
  5.3940000e+000  4.9100000e+000  5.7250000e+000
  5.3970000e+000  4.9050000e+000  5.7350000e+000
  5.4000000e+000  4.9150000e+000  5.7400000e+000
  5.4030000e+000  4.9200000e+000  5.7300000e+000
  5.4060000e+000  4.9100000e+000  5.7300000e+000
  5.4080000e+000  4.9100000e+000  5.7250000e+000
  5.4110000e+000  4.9050000e+000  5.7450000e+000
  5.4140000e+000  4.8950000e+000  5.7600000e+000
  5.4170000e+000  4.8950000e+000  5.7550000e+000
  5.4190000e+000  4.8650000e+000  5.7600000e+000
  5.4220000e+000  4.8700000e+000  5.7500000e+000
  5.4250000e+000  4.8650000e+000  5.7650000e+000
  5.4280000e+000  4.8750000e+000  5.7750000e+000
  5.4310000e+000  4.8700000e+000  5.7900000e+000
  5.4330000e+000  4.8700000e+000  5.7800000e+000
  5.4360000e+000  4.8800000e+000  5.7900000e+000
  5.4390000e+000  4.9050000e+000  5.7800000e+000
  5.4420000e+000  4.9100000e+000  5.7800000e+000
  5.4440000e+000  4.9000000e+000  5.7800000e+000
  5.4470000e+000  4.8900000e+000  5.7950000e+000
  5.4500000e+000  4.8950000e+000  5.8050000e+000
  5.4530000e+000  4.8950000e+000  5.8050000e+000
  5.4560000e+000  4.8750000e+000  5.7850000e+000
  5.4580000e+000  4.8500000e+000  5.7950000e+000
  5.4610000e+000  4.8600000e+000  5.8100000e+000
  5.4640000e+000  4.8650000e+000  5.8100000e+000
  5.4670000e+000  4.8750000e+000  5.8100000e+000
  5.4690000e+000  4.8750000e+000  5.8050000e+000
  5.4720000e+000  4.8550000e+000  5.7900000e+000
  5.4750000e+000  4.8350000e+000  5.7950000e+000
  5.4780000e+000  4.8350000e+000  5.8100000e+000
  5.4810000e+000  4.8300000e+000  5.8300000e+000
  5.4830000e+000  4.8350000e+000  5.8350000e+000
  5.4860000e+000  4.8200000e+000  5.8200000e+000
  5.4890000e+000  4.8100000e+000  5.8250000e+000
  5.4920000e+000  4.8050000e+000  5.8000000e+000
  5.4940000e+000  4.8050000e+000  5.8150000e+000
  5.4970000e+000  4.8150000e+000  5.8250000e+000
  5.5000000e+000  4.8150000e+000  5.8300000e+000
  5.5030000e+000  4.8050000e+000  5.8200000e+000
  5.5060000e+000  4.7800000e+000  5.8150000e+000
  5.5080000e+000  4.7700000e+000  5.7950000e+000
  5.5110000e+000  4.7700000e+000  5.8100000e+000
  5.5140000e+000  4.7900000e+000  5.8300000e+000
  5.5170000e+000  4.7950000e+000  5.8300000e+000
  5.5190000e+000  4.7950000e+000  5.8250000e+000
  5.5220000e+000  4.7850000e+000  5.8100000e+000
  5.5250000e+000  4.7500000e+000  5.8150000e+000
  5.5280000e+000  4.7500000e+000  5.8200000e+000
  5.5310000e+000  4.7500000e+000  5.8200000e+000
  5.5330000e+000  4.7750000e+000  5.8200000e+000
  5.5360000e+000  4.7750000e+000  5.8150000e+000
  5.5390000e+000  4.7700000e+000  5.8050000e+000
  5.5420000e+000  4.7550000e+000  5.7900000e+000
  5.5440000e+000  4.7450000e+000  5.8100000e+000
  5.5470000e+000  4.7550000e+000  5.8100000e+000
  5.5500000e+000  4.7650000e+000  5.8000000e+000
  5.5530000e+000  4.7600000e+000  5.7900000e+000
  5.5560000e+000  4.7600000e+000  5.7900000e+000
  5.5580000e+000  4.7650000e+000  5.7950000e+000
  5.5610000e+000  4.7750000e+000  5.8050000e+000
  5.5640000e+000  4.7550000e+000  5.8050000e+000
  5.5670000e+000  4.7150000e+000  5.7900000e+000
  5.5690000e+000  4.7100000e+000  5.7950000e+000
  5.5720000e+000  4.7550000e+000  5.7800000e+000
  5.5750000e+000  4.7900000e+000  5.7750000e+000
  5.5780000e+000  4.8000000e+000  5.7900000e+000
  5.5810000e+000  4.7900000e+000  5.7950000e+000
  5.5830000e+000  4.7600000e+000  5.8000000e+000
  5.5860000e+000  4.7500000e+000  5.8000000e+000
  5.5890000e+000  4.7500000e+000  5.7800000e+000
  5.5920000e+000  4.7500000e+000  5.7750000e+000
  5.5940000e+000  4.7500000e+000  5.7800000e+000
  5.5970000e+000  4.7500000e+000  5.7900000e+000
  5.6000000e+000  4.7550000e+000  5.8000000e+000
  5.6030000e+000  4.7450000e+000  5.7950000e+000
  5.6060000e+000  4.7500000e+000  5.7950000e+000
  5.6080000e+000  4.7400000e+000  5.7700000e+000
  5.6110000e+000  4.7600000e+000  5.7850000e+000
  5.6140000e+000  4.7750000e+000  5.7750000e+000
  5.6170000e+000  4.7800000e+000  5.7850000e+000
  5.6190000e+000  4.7900000e+000  5.7700000e+000
  5.6220000e+000  4.7850000e+000  5.7650000e+000
  5.6250000e+000  4.7600000e+000  5.7600000e+000
  5.6280000e+000  4.7500000e+000  5.7700000e+000
  5.6310000e+000  4.7700000e+000  5.7750000e+000
  5.6330000e+000  4.7800000e+000  5.7750000e+000
  5.6360000e+000  4.7700000e+000  5.7750000e+000
  5.6390000e+000  4.7500000e+000  5.7600000e+000
  5.6420000e+000  4.7300000e+000  5.7500000e+000
  5.6440000e+000  4.7350000e+000  5.7500000e+000
  5.6470000e+000  4.7600000e+000  5.7650000e+000
  5.6500000e+000  4.7700000e+000  5.7550000e+000
  5.6530000e+000  4.7700000e+000  5.7550000e+000
  5.6560000e+000  4.7700000e+000  5.7450000e+000
  5.6580000e+000  4.7600000e+000  5.7400000e+000
  5.6610000e+000  4.7650000e+000  5.7350000e+000
  5.6640000e+000  4.7800000e+000  5.7500000e+000
  5.6670000e+000  4.7650000e+000  5.7350000e+000
  5.6690000e+000  4.7600000e+000  5.7350000e+000
  5.6720000e+000  4.7450000e+000  5.7200000e+000
  5.6750000e+000  4.7600000e+000  5.7300000e+000
  5.6780000e+000  4.7650000e+000  5.7200000e+000
  5.6810000e+000  4.7550000e+000  5.7300000e+000
  5.6830000e+000  4.7450000e+000  5.7200000e+000
  5.6860000e+000  4.7400000e+000  5.7100000e+000
  5.6890000e+000  4.7500000e+000  5.7000000e+000
  5.6920000e+000  4.7650000e+000  5.6950000e+000
  5.6940000e+000  4.7700000e+000  5.7000000e+000
  5.6970000e+000  4.7700000e+000  5.7150000e+000
  5.7000000e+000  4.7600000e+000  5.7200000e+000
  5.7030000e+000  4.7550000e+000  5.7000000e+000
  5.7060000e+000  4.7450000e+000  5.7000000e+000
  5.7080000e+000  4.7450000e+000  5.7050000e+000
  5.7110000e+000  4.7650000e+000  5.7100000e+000
  5.7140000e+000  4.7700000e+000  5.7300000e+000
  5.7170000e+000  4.7750000e+000  5.7100000e+000
  5.7190000e+000  4.7750000e+000  5.7000000e+000
  5.7220000e+000  4.7550000e+000  5.6900000e+000
  5.7250000e+000  4.7500000e+000  5.6850000e+000
  5.7280000e+000  4.7800000e+000  5.6800000e+000
  5.7310000e+000  4.8150000e+000  5.7000000e+000
  5.7330000e+000  4.8200000e+000  5.7050000e+000
  5.7360000e+000  4.8000000e+000  5.7050000e+000
  5.7390000e+000  4.7800000e+000  5.6950000e+000
  5.7420000e+000  4.7900000e+000  5.7050000e+000
  5.7440000e+000  4.8300000e+000  5.7250000e+000
  5.7470000e+000  4.8600000e+000  5.7350000e+000
  5.7500000e+000  4.8600000e+000  5.7300000e+000
  5.7530000e+000  4.8450000e+000  5.7350000e+000
  5.7560000e+000  4.8350000e+000  5.7350000e+000
  5.7580000e+000  4.8300000e+000  5.7500000e+000
  5.7610000e+000  4.8250000e+000  5.7600000e+000
  5.7640000e+000  4.8500000e+000  5.7700000e+000
  5.7670000e+000  4.8800000e+000  5.7850000e+000
  5.7690000e+000  4.9450000e+000  5.7850000e+000
  5.7720000e+000  4.9700000e+000  5.7650000e+000
  5.7750000e+000  4.9650000e+000  5.7450000e+000
  5.7780000e+000  4.9650000e+000  5.7200000e+000
  5.7810000e+000  4.9800000e+000  5.7300000e+000
  5.7830000e+000  5.0000000e+000  5.7100000e+000
  5.7860000e+000  4.9950000e+000  5.6950000e+000
  5.7890000e+000  4.9850000e+000  5.6800000e+000
  5.7920000e+000  4.9950000e+000  5.6850000e+000
  5.7940000e+000  4.9950000e+000  5.6900000e+000
  5.7970000e+000  5.0050000e+000  5.6950000e+000
  5.8000000e+000  5.0200000e+000  5.6950000e+000
  5.8030000e+000  5.0150000e+000  5.6850000e+000
  5.8060000e+000  4.9850000e+000  5.6800000e+000
  5.8080000e+000  4.9450000e+000  5.6650000e+000
  5.8110000e+000  4.9200000e+000  5.6750000e+000
  5.8140000e+000  4.9100000e+000  5.6900000e+000
  5.8170000e+000  4.8850000e+000  5.6800000e+000
  5.8190000e+000  4.8400000e+000  5.6650000e+000
  5.8220000e+000  4.7800000e+000  5.6500000e+000
  5.8250000e+000  4.7300000e+000  5.6400000e+000
  5.8280000e+000  4.7100000e+000  5.6350000e+000
  5.8310000e+000  4.7150000e+000  5.6400000e+000
  5.8330000e+000  4.7350000e+000  5.6250000e+000
  5.8360000e+000  4.7400000e+000  5.6250000e+000
  5.8390000e+000  4.7350000e+000  5.6100000e+000
  5.8420000e+000  4.7250000e+000  5.5950000e+000
  5.8440000e+000  4.7400000e+000  5.6150000e+000
  5.8470000e+000  4.7500000e+000  5.6150000e+000
  5.8500000e+000  4.7550000e+000  5.6250000e+000
  5.8530000e+000  4.7350000e+000  5.6250000e+000
  5.8560000e+000  4.7250000e+000  5.5950000e+000
  5.8580000e+000  4.7200000e+000  5.5950000e+000
  5.8610000e+000  4.7500000e+000  5.6150000e+000
  5.8640000e+000  4.7500000e+000  5.6200000e+000
  5.8670000e+000  4.7500000e+000  5.6100000e+000
  5.8690000e+000  4.7500000e+000  5.6050000e+000
  5.8720000e+000  4.7450000e+000  5.6000000e+000
  5.8750000e+000  4.7350000e+000  5.5800000e+000
  5.8780000e+000  4.7200000e+000  5.5950000e+000
  5.8810000e+000  4.7300000e+000  5.6000000e+000
  5.8830000e+000  4.7600000e+000  5.6050000e+000
  5.8860000e+000  4.7550000e+000  5.5900000e+000
  5.8890000e+000  4.7400000e+000  5.5800000e+000
  5.8920000e+000  4.7250000e+000  5.5800000e+000
  5.8940000e+000  4.7150000e+000  5.6000000e+000
  5.8970000e+000  4.7300000e+000  5.5850000e+000
  5.9000000e+000  4.7550000e+000  5.5850000e+000
  5.9030000e+000  4.7650000e+000  5.5800000e+000
  5.9060000e+000  4.7600000e+000  5.5550000e+000
  5.9080000e+000  4.7400000e+000  5.5700000e+000
  5.9110000e+000  4.7300000e+000  5.5850000e+000
  5.9140000e+000  4.7550000e+000  5.5950000e+000
  5.9170000e+000  4.7750000e+000  5.6000000e+000
  5.9190000e+000  4.7650000e+000  5.5700000e+000
  5.9220000e+000  4.7300000e+000  5.5100000e+000
  5.9250000e+000  4.6750000e+000  5.4100000e+000
  5.9280000e+000  4.6750000e+000  5.3100000e+000
  5.9310000e+000  4.7050000e+000  5.1800000e+000
  5.9330000e+000  4.7350000e+000  5.0100000e+000
  5.9360000e+000  4.7300000e+000  4.7900000e+000
  5.9390000e+000  4.7250000e+000  4.4650000e+000
  5.9420000e+000  4.6950000e+000  4.1400000e+000
  5.9440000e+000  4.6550000e+000  3.9400000e+000
  5.9470000e+000  4.5750000e+000  3.8850000e+000
  5.9500000e+000  4.5100000e+000  3.9250000e+000
  5.9530000e+000  4.4800000e+000  3.9750000e+000
  5.9560000e+000  4.4800000e+000  4.0100000e+000
  5.9580000e+000  4.4700000e+000  4.0650000e+000
  5.9610000e+000  4.4650000e+000  4.1200000e+000
  5.9640000e+000  4.4400000e+000  4.1800000e+000
  5.9670000e+000  4.4000000e+000  4.2100000e+000
  5.9690000e+000  4.3600000e+000  4.2350000e+000
  5.9720000e+000  4.3000000e+000  4.2600000e+000
  5.9750000e+000  4.2600000e+000  4.2900000e+000
  5.9780000e+000  4.2800000e+000  4.3650000e+000
  5.9810000e+000  4.2700000e+000  4.4450000e+000
  5.9830000e+000  4.2200000e+000  4.4950000e+000
  5.9860000e+000  4.1750000e+000  4.5600000e+000
  5.9890000e+000  4.1350000e+000  4.6000000e+000
  5.9920000e+000  4.1200000e+000  4.6400000e+000
  5.9940000e+000  4.1600000e+000  4.7500000e+000
  5.9970000e+000  4.2250000e+000  4.8700000e+000
  6.0000000e+000  4.2650000e+000  4.9800000e+000
  6.0030000e+000  4.2800000e+000  5.0850000e+000
  6.0060000e+000  4.3150000e+000  5.1550000e+000
  6.0080000e+000  4.3750000e+000  5.2450000e+000
  6.0110000e+000  4.4550000e+000  5.3300000e+000
  6.0140000e+000  4.5000000e+000  5.4200000e+000
  6.0170000e+000  4.5550000e+000  5.5000000e+000
  6.0190000e+000  4.6000000e+000  5.5650000e+000
  6.0220000e+000  4.6750000e+000  5.6000000e+000
  6.0250000e+000  4.7200000e+000  5.6550000e+000
  6.0280000e+000  4.7650000e+000  5.7050000e+000
  6.0310000e+000  4.7750000e+000  5.7450000e+000
  6.0330000e+000  4.7850000e+000  5.7700000e+000
  6.0360000e+000  4.7900000e+000  5.7700000e+000
  6.0390000e+000  4.7850000e+000  5.7600000e+000
  6.0420000e+000  4.7800000e+000  5.7800000e+000
  6.0440000e+000  4.8050000e+000  5.7850000e+000
  6.0470000e+000  4.8250000e+000  5.8100000e+000
  6.0500000e+000  4.8350000e+000  5.8150000e+000
  6.0530000e+000  4.8350000e+000  5.8150000e+000
  6.0560000e+000  4.8100000e+000  5.8200000e+000
  6.0580000e+000  4.7950000e+000  5.8200000e+000
  6.0610000e+000  4.8050000e+000  5.8350000e+000
  6.0640000e+000  4.8350000e+000  5.8450000e+000
  6.0670000e+000  4.8450000e+000  5.8600000e+000
  6.0690000e+000  4.8400000e+000  5.8450000e+000
  6.0720000e+000  4.8200000e+000  5.8450000e+000
  6.0750000e+000  4.8050000e+000  5.8550000e+000
  6.0780000e+000  4.8200000e+000  5.8700000e+000
  6.0810000e+000  4.8150000e+000  5.8700000e+000
  6.0830000e+000  4.8350000e+000  5.8800000e+000
  6.0860000e+000  4.8550000e+000  5.8650000e+000
  6.0890000e+000  4.8450000e+000  5.8650000e+000
  6.0920000e+000  4.8400000e+000  5.8750000e+000
  6.0940000e+000  4.8400000e+000  5.8650000e+000
  6.0970000e+000  4.8450000e+000  5.8800000e+000
  6.1000000e+000  4.8400000e+000  5.8700000e+000
  6.1030000e+000  4.8300000e+000  5.8850000e+000
  6.1060000e+000  4.8200000e+000  5.8700000e+000
  6.1080000e+000  4.8100000e+000  5.8700000e+000
  6.1110000e+000  4.8350000e+000  5.8750000e+000
  6.1140000e+000  4.8700000e+000  5.8900000e+000
  6.1170000e+000  4.9000000e+000  5.8900000e+000
  6.1190000e+000  4.8950000e+000  5.8900000e+000
  6.1220000e+000  4.8750000e+000  5.8800000e+000
  6.1250000e+000  4.8550000e+000  5.8800000e+000
  6.1280000e+000  4.8700000e+000  5.8950000e+000
  6.1310000e+000  4.8800000e+000  5.9150000e+000
  6.1330000e+000  4.8950000e+000  5.9050000e+000
  6.1360000e+000  4.8950000e+000  5.9100000e+000
  6.1390000e+000  4.9050000e+000  5.9150000e+000
  6.1420000e+000  4.8950000e+000  5.9000000e+000
  6.1440000e+000  4.9000000e+000  5.9050000e+000
  6.1470000e+000  4.9050000e+000  5.9050000e+000
  6.1500000e+000  4.9200000e+000  5.9100000e+000
  6.1530000e+000  4.9200000e+000  5.9100000e+000
  6.1560000e+000  4.9200000e+000  5.8900000e+000
  6.1580000e+000  4.9150000e+000  5.8950000e+000
  6.1610000e+000  4.9150000e+000  5.9100000e+000
  6.1640000e+000  4.9150000e+000  5.9050000e+000
  6.1670000e+000  4.9300000e+000  5.9100000e+000
  6.1690000e+000  4.9250000e+000  5.8900000e+000
  6.1720000e+000  4.9300000e+000  5.8850000e+000
  6.1750000e+000  4.9150000e+000  5.8800000e+000
  6.1780000e+000  4.9300000e+000  5.8800000e+000
  6.1810000e+000  4.9600000e+000  5.9000000e+000
  6.1830000e+000  4.9850000e+000  5.8950000e+000
  6.1860000e+000  4.9950000e+000  5.8950000e+000
  6.1890000e+000  4.9750000e+000  5.8750000e+000
  6.1920000e+000  4.9650000e+000  5.8700000e+000
  6.1940000e+000  4.9800000e+000  5.8800000e+000
  6.1970000e+000  4.9800000e+000  5.8850000e+000
  6.2000000e+000  4.9900000e+000  5.8750000e+000
  6.2030000e+000  4.9850000e+000  5.8750000e+000
  6.2060000e+000  4.9700000e+000  5.8600000e+000
  6.2080000e+000  4.9650000e+000  5.8600000e+000
  6.2110000e+000  4.9700000e+000  5.8500000e+000
  6.2140000e+000  4.9950000e+000  5.8500000e+000
  6.2170000e+000  5.0200000e+000  5.8500000e+000
  6.2190000e+000  5.0100000e+000  5.8350000e+000
  6.2220000e+000  5.0100000e+000  5.8250000e+000
  6.2250000e+000  4.9800000e+000  5.8050000e+000
  6.2280000e+000  4.9900000e+000  5.8000000e+000
  6.2310000e+000  4.9900000e+000  5.7900000e+000
  6.2330000e+000  5.0100000e+000  5.7950000e+000
  6.2360000e+000  4.9900000e+000  5.7800000e+000
  6.2390000e+000  5.0000000e+000  5.7650000e+000
  6.2420000e+000  4.9700000e+000  5.7500000e+000
  6.2440000e+000  4.9750000e+000  5.7400000e+000
  6.2470000e+000  4.9850000e+000  5.7350000e+000
  6.2500000e+000  4.9850000e+000  5.7200000e+000
  6.2530000e+000  4.9650000e+000  5.7000000e+000
  6.2560000e+000  4.9450000e+000  5.6750000e+000
  6.2580000e+000  4.9550000e+000  5.6500000e+000
  6.2610000e+000  4.9800000e+000  5.6500000e+000
  6.2640000e+000  4.9850000e+000  5.6550000e+000
  6.2670000e+000  4.9700000e+000  5.6500000e+000
  6.2690000e+000  4.9450000e+000  5.6150000e+000
  6.2720000e+000  4.9200000e+000  5.5950000e+000
  6.2750000e+000  4.9150000e+000  5.5800000e+000
  6.2780000e+000  4.9200000e+000  5.5800000e+000
  6.2810000e+000  4.9300000e+000  5.5850000e+000
  6.2830000e+000  4.9300000e+000  5.5700000e+000
  6.2860000e+000  4.9050000e+000  5.5550000e+000
  6.2890000e+000  4.9050000e+000  5.5450000e+000
  6.2920000e+000  4.8750000e+000  5.5300000e+000
  6.2940000e+000  4.8850000e+000  5.5300000e+000
  6.2970000e+000  4.8750000e+000  5.5400000e+000
  6.3000000e+000  4.8750000e+000  5.5300000e+000
  6.3030000e+000  4.8700000e+000  5.5250000e+000
  6.3060000e+000  4.8650000e+000  5.5150000e+000
  6.3080000e+000  4.8550000e+000  5.5100000e+000
  6.3110000e+000  4.8700000e+000  5.5250000e+000
  6.3140000e+000  4.8900000e+000  5.5350000e+000
  6.3170000e+000  4.8900000e+000  5.5150000e+000
  6.3190000e+000  4.8700000e+000  5.5050000e+000
  6.3220000e+000  4.8600000e+000  5.4850000e+000
  6.3250000e+000  4.8400000e+000  5.4900000e+000
  6.3280000e+000  4.8600000e+000  5.5000000e+000
  6.3310000e+000  4.8550000e+000  5.5100000e+000
  6.3330000e+000  4.8550000e+000  5.5100000e+000
  6.3360000e+000  4.8250000e+000  5.5150000e+000
  6.3390000e+000  4.8050000e+000  5.5050000e+000
  6.3420000e+000  4.8200000e+000  5.4950000e+000
  6.3440000e+000  4.8650000e+000  5.5050000e+000
  6.3470000e+000  4.8950000e+000  5.5250000e+000
  6.3500000e+000  4.8900000e+000  5.5200000e+000
  6.3530000e+000  4.8600000e+000  5.5200000e+000
  6.3560000e+000  4.8350000e+000  5.5200000e+000
  6.3580000e+000  4.8100000e+000  5.5200000e+000
  6.3610000e+000  4.8150000e+000  5.5200000e+000
  6.3640000e+000  4.8400000e+000  5.5400000e+000
  6.3670000e+000  4.8600000e+000  5.5350000e+000
  6.3690000e+000  4.8750000e+000  5.5250000e+000
  6.3720000e+000  4.8700000e+000  5.5300000e+000
  6.3750000e+000  4.8400000e+000  5.5200000e+000
  6.3780000e+000  4.8400000e+000  5.5300000e+000
  6.3810000e+000  4.8350000e+000  5.5400000e+000
  6.3830000e+000  4.8450000e+000  5.5450000e+000
  6.3860000e+000  4.8400000e+000  5.5400000e+000
  6.3890000e+000  4.8400000e+000  5.5250000e+000
  6.3920000e+000  4.8250000e+000  5.5300000e+000
  6.3940000e+000  4.8150000e+000  5.5500000e+000
  6.3970000e+000  4.8350000e+000  5.5650000e+000
  6.4000000e+000  4.8450000e+000  5.5700000e+000
  6.4030000e+000  4.8450000e+000  5.5650000e+000
  6.4060000e+000  4.8250000e+000  5.5400000e+000
  6.4080000e+000  4.8050000e+000  5.5500000e+000
  6.4110000e+000  4.8100000e+000  5.5650000e+000
  6.4140000e+000  4.8300000e+000  5.5700000e+000
  6.4170000e+000  4.8450000e+000  5.5650000e+000
  6.4190000e+000  4.8250000e+000  5.5700000e+000
  6.4220000e+000  4.8100000e+000  5.5650000e+000
  6.4250000e+000  4.7950000e+000  5.5550000e+000
  6.4280000e+000  4.8150000e+000  5.5800000e+000
  6.4310000e+000  4.8200000e+000  5.5700000e+000
  6.4330000e+000  4.8400000e+000  5.5700000e+000
  6.4360000e+000  4.8100000e+000  5.5600000e+000
  6.4390000e+000  4.8000000e+000  5.5450000e+000
  6.4420000e+000  4.7900000e+000  5.5550000e+000
  6.4440000e+000  4.8150000e+000  5.5600000e+000
  6.4470000e+000  4.8100000e+000  5.5750000e+000
  6.4500000e+000  4.8150000e+000  5.5750000e+000
  6.4530000e+000  4.8050000e+000  5.5500000e+000
  6.4560000e+000  4.7750000e+000  5.5450000e+000
  6.4580000e+000  4.7750000e+000  5.5450000e+000
  6.4610000e+000  4.7800000e+000  5.5400000e+000
  6.4640000e+000  4.7900000e+000  5.5600000e+000
  6.4670000e+000  4.8000000e+000  5.5500000e+000
  6.4690000e+000  4.7900000e+000  5.5500000e+000
  6.4720000e+000  4.7750000e+000  5.5450000e+000
  6.4750000e+000  4.7700000e+000  5.5500000e+000
  6.4780000e+000  4.7700000e+000  5.5500000e+000
  6.4810000e+000  4.7750000e+000  5.5500000e+000
  6.4830000e+000  4.7750000e+000  5.5350000e+000
  6.4860000e+000  4.7750000e+000  5.5350000e+000
  6.4890000e+000  4.7500000e+000  5.5250000e+000
  6.4920000e+000  4.7350000e+000  5.5100000e+000
  6.4940000e+000  4.7450000e+000  5.5150000e+000
  6.4970000e+000  4.7700000e+000  5.5200000e+000
  6.5000000e+000  4.7850000e+000  5.5200000e+000
  6.5030000e+000  4.7950000e+000  5.5200000e+000
  6.5060000e+000  4.7750000e+000  5.5000000e+000
  6.5080000e+000  4.7550000e+000  5.5050000e+000
  6.5110000e+000  4.7400000e+000  5.5100000e+000
  6.5140000e+000  4.7350000e+000  5.5150000e+000
  6.5170000e+000  4.7450000e+000  5.5100000e+000
  6.5190000e+000  4.7500000e+000  5.4950000e+000
  6.5220000e+000  4.7550000e+000  5.4850000e+000
  6.5250000e+000  4.7650000e+000  5.4800000e+000
  6.5280000e+000  4.7700000e+000  5.5000000e+000
  6.5310000e+000  4.7750000e+000  5.5150000e+000
  6.5330000e+000  4.7900000e+000  5.5100000e+000
  6.5360000e+000  4.7750000e+000  5.5050000e+000
  6.5390000e+000  4.7600000e+000  5.5000000e+000
  6.5420000e+000  4.7550000e+000  5.4850000e+000
  6.5440000e+000  4.7700000e+000  5.4900000e+000
  6.5470000e+000  4.7700000e+000  5.5100000e+000
  6.5500000e+000  4.7700000e+000  5.5100000e+000
  6.5530000e+000  4.7550000e+000  5.5000000e+000
  6.5560000e+000  4.7450000e+000  5.4700000e+000
  6.5580000e+000  4.7350000e+000  5.4600000e+000
  6.5610000e+000  4.7450000e+000  5.4750000e+000
  6.5640000e+000  4.7700000e+000  5.4850000e+000
  6.5670000e+000  4.7950000e+000  5.4850000e+000
  6.5690000e+000  4.8000000e+000  5.4800000e+000
  6.5720000e+000  4.7950000e+000  5.4750000e+000
  6.5750000e+000  4.7800000e+000  5.4750000e+000
  6.5780000e+000  4.7800000e+000  5.4800000e+000
  6.5810000e+000  4.7850000e+000  5.4750000e+000
  6.5830000e+000  4.7900000e+000  5.4850000e+000
  6.5860000e+000  4.7900000e+000  5.4850000e+000
  6.5890000e+000  4.8050000e+000  5.4750000e+000
  6.5920000e+000  4.7900000e+000  5.4850000e+000
  6.5940000e+000  4.7900000e+000  5.4900000e+000
  6.5970000e+000  4.7950000e+000  5.4950000e+000
  6.6000000e+000  4.8000000e+000  5.4900000e+000
  6.6030000e+000  4.8000000e+000  5.4800000e+000
  6.6060000e+000  4.7900000e+000  5.4600000e+000
  6.6080000e+000  4.7850000e+000  5.4650000e+000
  6.6110000e+000  4.8000000e+000  5.4700000e+000
  6.6140000e+000  4.7950000e+000  5.4800000e+000
  6.6170000e+000  4.8200000e+000  5.4750000e+000
  6.6190000e+000  4.8100000e+000  5.4800000e+000
  6.6220000e+000  4.8050000e+000  5.4650000e+000
  6.6250000e+000  4.7950000e+000  5.4600000e+000
  6.6280000e+000  4.8000000e+000  5.4750000e+000
  6.6310000e+000  4.8100000e+000  5.4750000e+000
  6.6330000e+000  4.8150000e+000  5.4650000e+000
  6.6360000e+000  4.8200000e+000  5.4550000e+000
  6.6390000e+000  4.8100000e+000  5.4550000e+000
  6.6420000e+000  4.8050000e+000  5.4600000e+000
  6.6440000e+000  4.8150000e+000  5.4700000e+000
  6.6470000e+000  4.8200000e+000  5.4850000e+000
  6.6500000e+000  4.8300000e+000  5.4750000e+000
  6.6530000e+000  4.8400000e+000  5.4750000e+000
  6.6560000e+000  4.8200000e+000  5.4500000e+000
  6.6580000e+000  4.8050000e+000  5.4700000e+000
  6.6610000e+000  4.8050000e+000  5.4700000e+000
  6.6640000e+000  4.8150000e+000  5.4650000e+000
  6.6670000e+000  4.8300000e+000  5.4600000e+000
  6.6690000e+000  4.8150000e+000  5.4550000e+000
  6.6720000e+000  4.8150000e+000  5.4400000e+000
  6.6750000e+000  4.8050000e+000  5.4500000e+000
  6.6780000e+000  4.8050000e+000  5.4600000e+000
  6.6810000e+000  4.8100000e+000  5.4650000e+000
  6.6830000e+000  4.8300000e+000  5.4550000e+000
  6.6860000e+000  4.8250000e+000  5.4500000e+000
  6.6890000e+000  4.8100000e+000  5.4400000e+000
  6.6920000e+000  4.8050000e+000  5.4350000e+000
  6.6940000e+000  4.8150000e+000  5.4500000e+000
  6.6970000e+000  4.8250000e+000  5.4550000e+000
  6.7000000e+000  4.8200000e+000  5.4550000e+000
  6.7030000e+000  4.8150000e+000  5.4500000e+000
  6.7060000e+000  4.8300000e+000  5.4450000e+000
  6.7080000e+000  4.8050000e+000  5.4400000e+000
  6.7110000e+000  4.8000000e+000  5.4600000e+000
  6.7140000e+000  4.8200000e+000  5.4650000e+000
  6.7170000e+000  4.8750000e+000  5.4850000e+000
  6.7190000e+000  4.9000000e+000  5.4750000e+000
  6.7220000e+000  4.9100000e+000  5.4750000e+000
  6.7250000e+000  4.9000000e+000  5.4800000e+000
  6.7280000e+000  4.9000000e+000  5.5000000e+000
  6.7310000e+000  4.9100000e+000  5.5300000e+000
  6.7330000e+000  4.9300000e+000  5.5300000e+000
  6.7360000e+000  4.9200000e+000  5.5200000e+000
  6.7390000e+000  4.9500000e+000  5.5200000e+000
  6.7420000e+000  4.9550000e+000  5.5200000e+000
  6.7440000e+000  4.9900000e+000  5.5250000e+000
  6.7470000e+000  5.0000000e+000  5.5100000e+000
  6.7500000e+000  5.0100000e+000  5.4950000e+000
  6.7530000e+000  5.0350000e+000  5.4750000e+000
  6.7560000e+000  5.0250000e+000  5.4700000e+000
  6.7580000e+000  5.0250000e+000  5.4600000e+000
  6.7610000e+000  5.0200000e+000  5.4650000e+000
  6.7640000e+000  5.0250000e+000  5.4550000e+000
  6.7670000e+000  5.0350000e+000  5.4650000e+000
  6.7690000e+000  5.0450000e+000  5.4500000e+000
  6.7720000e+000  5.0500000e+000  5.4450000e+000
  6.7750000e+000  5.0600000e+000  5.4500000e+000
  6.7780000e+000  5.0600000e+000  5.4500000e+000
  6.7810000e+000  5.0750000e+000  5.4500000e+000
  6.7830000e+000  5.0500000e+000  5.4500000e+000
  6.7860000e+000  5.0150000e+000  5.4200000e+000
  6.7890000e+000  4.9600000e+000  5.4100000e+000
  6.7920000e+000  4.9200000e+000  5.4200000e+000
  6.7940000e+000  4.9050000e+000  5.4250000e+000
  6.7970000e+000  4.8700000e+000  5.4300000e+000
