180.000	 -0.300	 -0.275
180.003	 -0.285	 -0.265
180.006	 -0.285	 -0.255
180.008	 -0.280	 -0.265
180.011	 -0.255	 -0.255
180.014	 -0.265	 -0.255
180.017	 -0.280	 -0.265
180.019	 -0.260	 -0.255
180.022	 -0.240	 -0.230
180.025	 -0.235	 -0.230
180.028	 -0.220	 -0.245
180.031	 -0.225	 -0.255
180.033	 -0.245	 -0.260
180.036	 -0.235	 -0.240
180.039	 -0.235	 -0.230
180.042	 -0.230	 -0.225
180.044	 -0.240	 -0.225
180.047	 -0.255	 -0.225
180.050	 -0.255	 -0.230
180.053	 -0.260	 -0.225
180.056	 -0.250	 -0.220
180.058	 -0.255	 -0.210
180.061	 -0.265	 -0.230
180.064	 -0.250	 -0.250
180.067	 -0.245	 -0.255
180.069	 -0.235	 -0.250
180.072	 -0.250	 -0.235
180.075	 -0.265	 -0.240
180.078	 -0.280	 -0.240
180.081	 -0.300	 -0.260
180.083	 -0.320	 -0.270
180.086	 -0.335	 -0.255
180.089	 -0.340	 -0.245
180.092	 -0.335	 -0.255
180.094	 -0.335	 -0.265
180.097	 -0.355	 -0.275
180.100	 -0.370	 -0.270
180.103	 -0.360	 -0.270
180.106	 -0.350	 -0.255
180.108	 -0.330	 -0.255
180.111	 -0.340	 -0.270
180.114	 -0.350	 -0.280
180.117	 -0.360	 -0.280
180.119	 -0.350	 -0.270
180.122	 -0.345	 -0.260
180.125	 -0.345	 -0.260
180.128	 -0.335	 -0.255
180.131	 -0.355	 -0.285
180.133	 -0.360	 -0.285
180.136	 -0.365	 -0.270
180.139	 -0.355	 -0.265
180.142	 -0.350	 -0.255
180.144	 -0.355	 -0.265
180.147	 -0.365	 -0.260
180.150	 -0.370	 -0.270
180.153	 -0.360	 -0.265
180.156	 -0.355	 -0.265
180.158	 -0.355	 -0.265
180.161	 -0.355	 -0.280
180.164	 -0.375	 -0.310
180.167	 -0.390	 -0.335
180.169	 -0.410	 -0.345
180.172	 -0.435	 -0.350
180.175	 -0.460	 -0.375
180.178	 -0.475	 -0.360
180.181	 -0.510	 -0.315
180.183	 -0.555	 -0.220
180.186	 -0.560	 -0.090
180.189	 -0.500	  0.010
180.192	 -0.375	  0.125
180.194	 -0.235	  0.215
180.197	 -0.085	  0.315
180.200	  0.105	  0.420
180.203	  0.390	  0.525
180.206	  0.660	  0.510
180.208	  0.865	  0.350
180.211	  0.920	  0.050
180.214	  0.820	 -0.220
180.217	  0.505	 -0.320
180.219	  0.100	 -0.300
180.222	 -0.255	 -0.275
180.225	 -0.430	 -0.280
180.228	 -0.485	 -0.285
180.231	 -0.465	 -0.275
180.233	 -0.425	 -0.280
180.236	 -0.390	 -0.275
180.239	 -0.365	 -0.275
180.242	 -0.370	 -0.275
180.244	 -0.375	 -0.285
180.247	 -0.370	 -0.300
180.250	 -0.390	 -0.295
180.253	 -0.380	 -0.290
180.256	 -0.380	 -0.295
180.258	 -0.365	 -0.280
180.261	 -0.375	 -0.290
180.264	 -0.380	 -0.295
180.267	 -0.395	 -0.300
180.269	 -0.395	 -0.295
180.272	 -0.385	 -0.280
180.275	 -0.375	 -0.285
180.278	 -0.380	 -0.295
180.281	 -0.390	 -0.295
180.283	 -0.395	 -0.300
180.286	 -0.400	 -0.290
180.289	 -0.390	 -0.280
180.292	 -0.385	 -0.290
180.294	 -0.385	 -0.290
180.297	 -0.395	 -0.300
180.300	 -0.405	 -0.300
180.303	 -0.400	 -0.290
180.306	 -0.385	 -0.280
180.308	 -0.380	 -0.270
180.311	 -0.385	 -0.280
180.314	 -0.395	 -0.295
180.317	 -0.410	 -0.305
180.319	 -0.410	 -0.280
180.322	 -0.390	 -0.280
180.325	 -0.395	 -0.280
180.328	 -0.385	 -0.280
180.331	 -0.395	 -0.280
180.333	 -0.390	 -0.290
180.336	 -0.385	 -0.285
180.339	 -0.375	 -0.275
180.342	 -0.370	 -0.275
180.344	 -0.375	 -0.295
180.347	 -0.380	 -0.290
180.350	 -0.390	 -0.305
180.353	 -0.390	 -0.290
180.356	 -0.385	 -0.270
180.358	 -0.385	 -0.275
180.361	 -0.385	 -0.285
180.364	 -0.380	 -0.290
180.367	 -0.380	 -0.305
180.369	 -0.390	 -0.295
180.372	 -0.385	 -0.285
180.375	 -0.375	 -0.275
180.378	 -0.370	 -0.290
180.381	 -0.385	 -0.310
180.383	 -0.395	 -0.295
180.386	 -0.395	 -0.305
180.389	 -0.380	 -0.290
180.392	 -0.360	 -0.300
180.394	 -0.365	 -0.305
180.397	 -0.375	 -0.315
180.400	 -0.380	 -0.315
180.403	 -0.370	 -0.305
180.406	 -0.375	 -0.300
180.408	 -0.370	 -0.310
180.411	 -0.360	 -0.305
180.414	 -0.380	 -0.320
180.417	 -0.385	 -0.325
180.419	 -0.385	 -0.325
180.422	 -0.375	 -0.325
180.425	 -0.370	 -0.330
180.428	 -0.370	 -0.335
180.431	 -0.380	 -0.350
180.433	 -0.395	 -0.360
180.436	 -0.385	 -0.355
180.439	 -0.390	 -0.360
180.442	 -0.375	 -0.365
180.444	 -0.380	 -0.375
180.447	 -0.385	 -0.385
180.450	 -0.395	 -0.400
180.453	 -0.400	 -0.390
180.456	 -0.385	 -0.390
180.458	 -0.380	 -0.385
180.461	 -0.380	 -0.395
180.464	 -0.390	 -0.420
180.467	 -0.405	 -0.425
180.469	 -0.400	 -0.420
180.472	 -0.400	 -0.400
180.475	 -0.375	 -0.405
180.478	 -0.395	 -0.415
180.481	 -0.390	 -0.415
180.483	 -0.400	 -0.425
180.486	 -0.390	 -0.410
180.489	 -0.395	 -0.395
180.492	 -0.385	 -0.395
180.494	 -0.390	 -0.380
180.497	 -0.400	 -0.385
180.500	 -0.405	 -0.385
180.503	 -0.395	 -0.360
180.506	 -0.385	 -0.340
180.508	 -0.370	 -0.325
180.511	 -0.360	 -0.315
180.514	 -0.365	 -0.320
180.517	 -0.360	 -0.305
180.519	 -0.355	 -0.280
180.522	 -0.325	 -0.250
180.525	 -0.305	 -0.240
180.528	 -0.300	 -0.235
180.531	 -0.300	 -0.250
180.533	 -0.285	 -0.240
180.536	 -0.285	 -0.230
180.539	 -0.265	 -0.215
180.542	 -0.250	 -0.205
180.544	 -0.255	 -0.205
180.547	 -0.255	 -0.205
180.550	 -0.250	 -0.210
180.553	 -0.255	 -0.220
180.556	 -0.240	 -0.205
180.558	 -0.235	 -0.200
180.561	 -0.250	 -0.195
180.564	 -0.245	 -0.210
180.567	 -0.260	 -0.205
180.569	 -0.245	 -0.200
180.572	 -0.250	 -0.185
180.575	 -0.235	 -0.195
180.578	 -0.235	 -0.195
180.581	 -0.235	 -0.195
180.583	 -0.255	 -0.200
180.586	 -0.270	 -0.205
180.589	 -0.245	 -0.190
180.592	 -0.235	 -0.200
180.594	 -0.235	 -0.200
180.597	 -0.250	 -0.210
180.600	 -0.260	 -0.205
180.603	 -0.250	 -0.205
180.606	 -0.250	 -0.200
180.608	 -0.240	 -0.195
180.611	 -0.245	 -0.210
180.614	 -0.250	 -0.225
180.617	 -0.250	 -0.220
180.619	 -0.255	 -0.205
180.622	 -0.250	 -0.200
180.625	 -0.245	 -0.200
180.628	 -0.245	 -0.205
180.631	 -0.260	 -0.225
180.633	 -0.270	 -0.225
180.636	 -0.270	 -0.225
180.639	 -0.265	 -0.210
180.642	 -0.255	 -0.200
180.644	 -0.250	 -0.215
180.647	 -0.265	 -0.225
180.650	 -0.285	 -0.230
180.653	 -0.275	 -0.225
180.656	 -0.275	 -0.220
180.658	 -0.260	 -0.215
180.661	 -0.270	 -0.220
180.664	 -0.275	 -0.235
180.667	 -0.295	 -0.235
180.669	 -0.285	 -0.225
180.672	 -0.285	 -0.225
180.675	 -0.280	 -0.230
180.678	 -0.265	 -0.225
180.681	 -0.275	 -0.230
180.683	 -0.295	 -0.255
180.686	 -0.280	 -0.230
180.689	 -0.280	 -0.220
180.692	 -0.265	 -0.235
180.694	 -0.275	 -0.225
180.697	 -0.275	 -0.245
180.700	 -0.290	 -0.255
180.703	 -0.295	 -0.245
180.706	 -0.290	 -0.235
180.708	 -0.290	 -0.230
180.711	 -0.285	 -0.240
180.714	 -0.290	 -0.245
180.717	 -0.305	 -0.245
180.719	 -0.300	 -0.240
180.722	 -0.285	 -0.240
180.725	 -0.275	 -0.235
180.728	 -0.290	 -0.235
180.731	 -0.290	 -0.255
180.733	 -0.295	 -0.255
180.736	 -0.295	 -0.255
180.739	 -0.290	 -0.240
180.742	 -0.270	 -0.235
180.744	 -0.270	 -0.240
180.747	 -0.290	 -0.255
180.750	 -0.295	 -0.245
180.753	 -0.290	 -0.250
180.756	 -0.285	 -0.235
180.758	 -0.285	 -0.235
180.761	 -0.290	 -0.250
180.764	 -0.285	 -0.245
180.767	 -0.290	 -0.255
180.769	 -0.290	 -0.240
180.772	 -0.275	 -0.235
180.775	 -0.280	 -0.230
180.778	 -0.275	 -0.235
180.781	 -0.285	 -0.240
180.783	 -0.290	 -0.250
180.786	 -0.285	 -0.240
180.789	 -0.280	 -0.230
180.792	 -0.265	 -0.225
180.794	 -0.280	 -0.230
180.797	 -0.280	 -0.240
180.800	 -0.280	 -0.250
180.803	 -0.285	 -0.240
180.806	 -0.285	 -0.235
180.808	 -0.285	 -0.230
180.811	 -0.270	 -0.225
180.814	 -0.285	 -0.240
180.817	 -0.290	 -0.235
180.819	 -0.280	 -0.240
180.822	 -0.275	 -0.225
180.825	 -0.255	 -0.225
180.828	 -0.235	 -0.245
180.831	 -0.230	 -0.245
180.833	 -0.235	 -0.260
180.836	 -0.240	 -0.245
180.839	 -0.205	 -0.230
180.842	 -0.205	 -0.215
180.844	 -0.200	 -0.215
180.847	 -0.200	 -0.220
180.850	 -0.200	 -0.235
180.853	 -0.190	 -0.200
180.856	 -0.175	 -0.205
180.858	 -0.160	 -0.210
180.861	 -0.165	 -0.210
180.864	 -0.165	 -0.210
180.867	 -0.185	 -0.205
180.869	 -0.180	 -0.195
180.872	 -0.175	 -0.180
180.875	 -0.180	 -0.185
180.878	 -0.190	 -0.175
180.881	 -0.200	 -0.185
180.883	 -0.210	 -0.195
180.886	 -0.200	 -0.185
180.889	 -0.200	 -0.180
180.892	 -0.200	 -0.175
180.894	 -0.190	 -0.195
180.897	 -0.175	 -0.200
180.900	 -0.165	 -0.225
180.903	 -0.175	 -0.215
180.906	 -0.195	 -0.200
180.908	 -0.205	 -0.195
180.911	 -0.235	 -0.205
180.914	 -0.255	 -0.225
180.917	 -0.285	 -0.225
180.919	 -0.295	 -0.230
180.922	 -0.275	 -0.225
180.925	 -0.270	 -0.235
180.928	 -0.285	 -0.230
180.931	 -0.285	 -0.240
180.933	 -0.295	 -0.240
180.936	 -0.290	 -0.225
180.939	 -0.285	 -0.220
180.942	 -0.270	 -0.220
180.944	 -0.270	 -0.230
180.947	 -0.295	 -0.235
180.950	 -0.290	 -0.250
180.953	 -0.295	 -0.235
180.956	 -0.295	 -0.235
180.958	 -0.290	 -0.235
180.961	 -0.285	 -0.235
180.964	 -0.295	 -0.250
180.967	 -0.305	 -0.240
180.969	 -0.305	 -0.250
180.972	 -0.305	 -0.245
180.975	 -0.305	 -0.240
180.978	 -0.305	 -0.240
180.981	 -0.315	 -0.245
180.983	 -0.320	 -0.255
180.986	 -0.325	 -0.250
180.989	 -0.320	 -0.240
180.992	 -0.305	 -0.255
180.994	 -0.310	 -0.285
180.997	 -0.330	 -0.320
181.000	 -0.350	 -0.340
181.003	 -0.385	 -0.345
181.006	 -0.410	 -0.365
181.008	 -0.435	 -0.345
181.011	 -0.455	 -0.280
181.014	 -0.500	 -0.185
181.017	 -0.510	 -0.065
181.019	 -0.455	  0.045
181.022	 -0.315	  0.160
181.025	 -0.160	  0.275
181.028	  0.020	  0.395
181.031	  0.245	  0.480
181.033	  0.510	  0.510
181.036	  0.765	  0.415
181.039	  0.910	  0.170
181.042	  0.895	 -0.115
181.044	  0.660	 -0.270
181.047	  0.275	 -0.285
181.050	 -0.135	 -0.255
181.053	 -0.385	 -0.265
181.056	 -0.445	 -0.260
181.058	 -0.395	 -0.265
181.061	 -0.340	 -0.260
181.064	 -0.325	 -0.290
181.067	 -0.350	 -0.295
181.069	 -0.340	 -0.270
181.072	 -0.340	 -0.265
181.075	 -0.315	 -0.270
181.078	 -0.315	 -0.275
181.081	 -0.320	 -0.285
181.083	 -0.340	 -0.290
181.086	 -0.330	 -0.280
181.089	 -0.320	 -0.270
181.092	 -0.320	 -0.285
181.094	 -0.320	 -0.280
181.097	 -0.335	 -0.285
181.100	 -0.335	 -0.290
181.103	 -0.340	 -0.280
181.106	 -0.330	 -0.270
181.108	 -0.330	 -0.275
181.111	 -0.335	 -0.285
181.114	 -0.335	 -0.290
181.117	 -0.340	 -0.290
181.119	 -0.340	 -0.270
181.122	 -0.340	 -0.265
181.125	 -0.345	 -0.270
181.128	 -0.340	 -0.270
181.131	 -0.345	 -0.290
181.133	 -0.340	 -0.295
181.136	 -0.335	 -0.285
181.139	 -0.340	 -0.275
181.142	 -0.330	 -0.265
181.144	 -0.335	 -0.275
181.147	 -0.345	 -0.275
181.150	 -0.350	 -0.285
181.153	 -0.350	 -0.285
181.156	 -0.330	 -0.270
181.158	 -0.325	 -0.255
181.161	 -0.330	 -0.270
181.164	 -0.345	 -0.270
181.167	 -0.330	 -0.275
181.169	 -0.335	 -0.275
181.172	 -0.330	 -0.265
181.175	 -0.325	 -0.270
181.178	 -0.315	 -0.270
181.181	 -0.325	 -0.285
181.183	 -0.330	 -0.285
181.186	 -0.335	 -0.270
181.189	 -0.335	 -0.260
181.192	 -0.320	 -0.270
181.194	 -0.320	 -0.270
181.197	 -0.330	 -0.290
181.200	 -0.345	 -0.300
181.203	 -0.345	 -0.295
181.206	 -0.330	 -0.285
181.208	 -0.325	 -0.285
181.211	 -0.330	 -0.300
181.214	 -0.335	 -0.310
181.217	 -0.345	 -0.305
181.219	 -0.340	 -0.320
181.222	 -0.330	 -0.305
181.225	 -0.320	 -0.295
181.228	 -0.320	 -0.300
181.231	 -0.330	 -0.305
181.233	 -0.340	 -0.335
181.236	 -0.335	 -0.320
181.239	 -0.335	 -0.325
181.242	 -0.320	 -0.335
181.244	 -0.320	 -0.345
181.247	 -0.330	 -0.350
181.250	 -0.340	 -0.355
181.253	 -0.345	 -0.350
181.256	 -0.335	 -0.360
181.258	 -0.330	 -0.360
181.261	 -0.340	 -0.375
181.264	 -0.350	 -0.385
181.267	 -0.355	 -0.405
181.269	 -0.355	 -0.390
181.272	 -0.355	 -0.385
181.275	 -0.350	 -0.390
181.278	 -0.345	 -0.395
181.281	 -0.350	 -0.410
181.283	 -0.360	 -0.425
181.286	 -0.360	 -0.405
181.289	 -0.350	 -0.405
181.292	 -0.345	 -0.395
181.294	 -0.345	 -0.390
181.297	 -0.355	 -0.400
181.300	 -0.365	 -0.405
181.303	 -0.345	 -0.390
181.306	 -0.335	 -0.390
181.308	 -0.335	 -0.385
181.311	 -0.345	 -0.385
181.314	 -0.335	 -0.405
181.317	 -0.350	 -0.395
181.319	 -0.345	 -0.385
181.322	 -0.335	 -0.355
181.325	 -0.330	 -0.350
181.328	 -0.330	 -0.345
181.331	 -0.335	 -0.335
181.333	 -0.335	 -0.320
181.336	 -0.320	 -0.305
181.339	 -0.305	 -0.285
181.342	 -0.295	 -0.285
181.344	 -0.300	 -0.270
181.347	 -0.290	 -0.265
181.350	 -0.275	 -0.255
181.353	 -0.285	 -0.240
181.356	 -0.275	 -0.230
181.358	 -0.255	 -0.230
181.361	 -0.255	 -0.230
181.364	 -0.260	 -0.230
181.367	 -0.260	 -0.240
181.369	 -0.260	 -0.220
181.372	 -0.255	 -0.205
181.375	 -0.250	 -0.215
181.378	 -0.245	 -0.220
181.381	 -0.235	 -0.225
181.383	 -0.240	 -0.225
181.386	 -0.250	 -0.225
181.389	 -0.215	 -0.225
181.392	 -0.215	 -0.215
181.394	 -0.220	 -0.210
181.397	 -0.225	 -0.225
181.400	 -0.235	 -0.225
181.403	 -0.245	 -0.220
181.406	 -0.245	 -0.220
181.408	 -0.235	 -0.225
181.411	 -0.255	 -0.220
181.414	 -0.255	 -0.225
181.417	 -0.250	 -0.225
181.419	 -0.255	 -0.220
181.422	 -0.245	 -0.210
181.425	 -0.230	 -0.215
181.428	 -0.240	 -0.220
181.431	 -0.250	 -0.240
181.433	 -0.265	 -0.240
181.436	 -0.265	 -0.220
181.439	 -0.265	 -0.210
181.442	 -0.245	 -0.230
181.444	 -0.255	 -0.220
181.447	 -0.270	 -0.235
181.450	 -0.265	 -0.245
181.453	 -0.265	 -0.240
181.456	 -0.255	 -0.230
181.458	 -0.250	 -0.230
181.461	 -0.265	 -0.230
181.464	 -0.260	 -0.250
181.467	 -0.260	 -0.250
181.469	 -0.265	 -0.240
181.472	 -0.260	 -0.230
181.475	 -0.260	 -0.235
181.478	 -0.260	 -0.235
181.481	 -0.265	 -0.250
181.483	 -0.290	 -0.250
181.486	 -0.280	 -0.250
181.489	 -0.265	 -0.230
181.492	 -0.255	 -0.255
181.494	 -0.270	 -0.245
181.497	 -0.270	 -0.265
181.500	 -0.280	 -0.265
181.503	 -0.285	 -0.260
181.506	 -0.275	 -0.240
181.508	 -0.260	 -0.240
181.511	 -0.270	 -0.245
181.514	 -0.275	 -0.260
181.517	 -0.290	 -0.255
181.519	 -0.290	 -0.250
181.522	 -0.275	 -0.240
181.525	 -0.270	 -0.235
181.528	 -0.275	 -0.245
181.531	 -0.280	 -0.260
181.533	 -0.290	 -0.265
181.536	 -0.295	 -0.250
181.539	 -0.285	 -0.235
181.542	 -0.270	 -0.245
181.544	 -0.275	 -0.245
181.547	 -0.275	 -0.255
181.550	 -0.285	 -0.255
181.553	 -0.285	 -0.245
181.556	 -0.285	 -0.235
181.558	 -0.265	 -0.230
181.561	 -0.280	 -0.235
181.564	 -0.290	 -0.240
181.567	 -0.300	 -0.245
181.569	 -0.295	 -0.240
181.572	 -0.285	 -0.235
181.575	 -0.270	 -0.230
181.578	 -0.275	 -0.230
181.581	 -0.280	 -0.240
181.583	 -0.280	 -0.250
181.586	 -0.285	 -0.225
181.589	 -0.290	 -0.225
181.592	 -0.270	 -0.235
181.594	 -0.270	 -0.230
181.597	 -0.275	 -0.245
181.600	 -0.275	 -0.235
181.603	 -0.270	 -0.240
181.606	 -0.270	 -0.225
181.608	 -0.260	 -0.220
181.611	 -0.260	 -0.230
181.614	 -0.265	 -0.235
181.617	 -0.265	 -0.250
181.619	 -0.280	 -0.240
181.622	 -0.275	 -0.225
181.625	 -0.240	 -0.225
181.628	 -0.255	 -0.225
181.631	 -0.245	 -0.240
181.633	 -0.235	 -0.240
181.636	 -0.230	 -0.225
181.639	 -0.225	 -0.215
181.642	 -0.210	 -0.215
181.644	 -0.210	 -0.215
181.647	 -0.210	 -0.220
181.650	 -0.215	 -0.215
181.653	 -0.215	 -0.205
181.656	 -0.185	 -0.200
181.658	 -0.175	 -0.190
181.661	 -0.170	 -0.180
181.664	 -0.165	 -0.200
181.667	 -0.165	 -0.200
181.669	 -0.180	 -0.195
181.672	 -0.175	 -0.190
181.675	 -0.170	 -0.195
181.678	 -0.180	 -0.185
181.681	 -0.190	 -0.180
181.683	 -0.200	 -0.185
181.686	 -0.205	 -0.180
181.689	 -0.200	 -0.155
181.692	 -0.180	 -0.170
181.694	 -0.185	 -0.175
181.697	 -0.180	 -0.190
181.700	 -0.205	 -0.195
181.703	 -0.210	 -0.180
181.706	 -0.210	 -0.180
181.708	 -0.190	 -0.175
181.711	 -0.180	 -0.190
181.714	 -0.160	 -0.200
181.717	 -0.185	 -0.220
181.719	 -0.205	 -0.210
181.722	 -0.230	 -0.210
181.725	 -0.230	 -0.200
181.728	 -0.260	 -0.210
181.731	 -0.270	 -0.225
181.733	 -0.300	 -0.230
181.736	 -0.315	 -0.235
181.739	 -0.310	 -0.230
181.742	 -0.300	 -0.235
181.744	 -0.300	 -0.225
181.747	 -0.310	 -0.245
181.750	 -0.315	 -0.235
181.753	 -0.325	 -0.255
181.756	 -0.310	 -0.230
181.758	 -0.300	 -0.230
181.761	 -0.320	 -0.235
181.764	 -0.315	 -0.240
181.767	 -0.340	 -0.250
181.769	 -0.315	 -0.245
181.772	 -0.315	 -0.230
181.775	 -0.305	 -0.235
181.778	 -0.300	 -0.240
181.781	 -0.320	 -0.250
181.783	 -0.320	 -0.265
181.786	 -0.340	 -0.255
181.789	 -0.325	 -0.235
181.792	 -0.325	 -0.240
181.794	 -0.325	 -0.245
181.797	 -0.335	 -0.270
181.800	 -0.345	 -0.315
181.803	 -0.360	 -0.340
181.806	 -0.395	 -0.370
181.808	 -0.420	 -0.370
181.811	 -0.440	 -0.370
181.814	 -0.480	 -0.325
181.817	 -0.525	 -0.240
181.819	 -0.560	 -0.125
181.822	 -0.510	 -0.040
181.825	 -0.410	  0.040
181.828	 -0.285	  0.135
181.831	 -0.130	  0.220
181.833	  0.070	  0.310
181.836	  0.335	  0.395
181.839	  0.615	  0.385
181.842	  0.775	  0.230
181.844	  0.815	 -0.040
181.847	  0.725	 -0.295
181.850	  0.450	 -0.370
181.853	  0.075	 -0.325
181.856	 -0.240	 -0.275
181.858	 -0.405	 -0.280
181.861	 -0.465	 -0.285
181.864	 -0.460	 -0.285
181.867	 -0.430	 -0.280
181.869	 -0.395	 -0.255
181.872	 -0.365	 -0.260
181.875	 -0.345	 -0.270
181.878	 -0.355	 -0.265
181.881	 -0.375	 -0.295
181.883	 -0.370	 -0.295
181.886	 -0.380	 -0.285
181.889	 -0.365	 -0.265
181.892	 -0.370	 -0.280
181.894	 -0.350	 -0.270
181.897	 -0.365	 -0.290
181.900	 -0.370	 -0.285
181.903	 -0.375	 -0.275
181.906	 -0.380	 -0.270
181.908	 -0.375	 -0.270
181.911	 -0.370	 -0.280
181.914	 -0.375	 -0.300
181.917	 -0.385	 -0.290
181.919	 -0.390	 -0.290
181.922	 -0.370	 -0.260
181.925	 -0.345	 -0.270
181.928	 -0.355	 -0.270
181.931	 -0.370	 -0.280
181.933	 -0.375	 -0.290
181.936	 -0.375	 -0.285
181.939	 -0.375	 -0.280
181.942	 -0.355	 -0.275
181.944	 -0.370	 -0.270
181.947	 -0.375	 -0.285
181.950	 -0.380	 -0.290
181.953	 -0.370	 -0.285
181.956	 -0.370	 -0.275
181.958	 -0.365	 -0.270
181.961	 -0.370	 -0.275
181.964	 -0.370	 -0.290
181.967	 -0.360	 -0.285
181.969	 -0.365	 -0.280
181.972	 -0.360	 -0.280
181.975	 -0.365	 -0.265
181.978	 -0.380	 -0.265
181.981	 -0.375	 -0.285
181.983	 -0.375	 -0.295
181.986	 -0.380	 -0.285
181.989	 -0.375	 -0.280
181.992	 -0.370	 -0.270
181.994	 -0.370	 -0.280
181.997	 -0.365	 -0.285
182.000	 -0.370	 -0.300
182.003	 -0.375	 -0.295
182.006	 -0.365	 -0.285
182.008	 -0.355	 -0.300
182.011	 -0.355	 -0.285
182.014	 -0.360	 -0.300
182.017	 -0.365	 -0.315
182.019	 -0.385	 -0.310
182.022	 -0.365	 -0.305
182.025	 -0.360	 -0.295
182.028	 -0.360	 -0.305
182.031	 -0.360	 -0.320
182.033	 -0.370	 -0.330
182.036	 -0.375	 -0.330
182.039	 -0.355	 -0.300
182.042	 -0.355	 -0.305
182.044	 -0.345	 -0.315
182.047	 -0.355	 -0.325
182.050	 -0.370	 -0.335
182.053	 -0.380	 -0.320
182.056	 -0.365	 -0.340
182.058	 -0.370	 -0.335
182.061	 -0.365	 -0.360
182.064	 -0.365	 -0.350
182.067	 -0.385	 -0.355
182.069	 -0.390	 -0.355
182.072	 -0.385	 -0.355
182.075	 -0.380	 -0.365
182.078	 -0.380	 -0.385
182.081	 -0.385	 -0.395
182.083	 -0.395	 -0.400
182.086	 -0.380	 -0.410
182.089	 -0.380	 -0.390
182.092	 -0.375	 -0.390
182.094	 -0.375	 -0.405
182.097	 -0.390	 -0.405
182.100	 -0.400	 -0.430
182.103	 -0.410	 -0.415
182.106	 -0.400	 -0.405
182.108	 -0.395	 -0.400
182.111	 -0.375	 -0.395
182.114	 -0.400	 -0.410
182.117	 -0.415	 -0.410
182.119	 -0.415	 -0.395
182.122	 -0.410	 -0.385
182.125	 -0.400	 -0.370
182.128	 -0.400	 -0.350
182.131	 -0.400	 -0.340
182.133	 -0.390	 -0.340
182.136	 -0.385	 -0.320
182.139	 -0.365	 -0.305
182.142	 -0.355	 -0.300
182.144	 -0.350	 -0.295
182.147	 -0.350	 -0.290
182.150	 -0.345	 -0.295
182.153	 -0.340	 -0.290
182.156	 -0.340	 -0.270
182.158	 -0.320	 -0.250
182.161	 -0.325	 -0.265
182.164	 -0.325	 -0.270
182.167	 -0.330	 -0.275
182.169	 -0.315	 -0.265
182.172	 -0.300	 -0.240
182.175	 -0.285	 -0.245
182.178	 -0.295	 -0.255
182.181	 -0.295	 -0.255
182.183	 -0.305	 -0.260
182.186	 -0.315	 -0.260
182.189	 -0.310	 -0.255
182.192	 -0.310	 -0.255
182.194	 -0.310	 -0.255
182.197	 -0.310	 -0.255
182.200	 -0.315	 -0.260
182.203	 -0.315	 -0.255
182.206	 -0.315	 -0.245
182.208	 -0.300	 -0.250
182.211	 -0.315	 -0.255
182.214	 -0.305	 -0.260
182.217	 -0.310	 -0.270
182.219	 -0.325	 -0.265
182.222	 -0.310	 -0.265
182.225	 -0.300	 -0.265
182.228	 -0.305	 -0.260
182.231	 -0.310	 -0.280
182.233	 -0.320	 -0.275
182.236	 -0.330	 -0.260
182.239	 -0.315	 -0.245
182.242	 -0.300	 -0.250
182.244	 -0.310	 -0.265
182.247	 -0.325	 -0.270
182.250	 -0.340	 -0.275
182.253	 -0.335	 -0.270
182.256	 -0.325	 -0.260
182.258	 -0.325	 -0.265
182.261	 -0.335	 -0.260
182.264	 -0.335	 -0.280
182.267	 -0.345	 -0.285
182.269	 -0.335	 -0.285
182.272	 -0.330	 -0.275
182.275	 -0.325	 -0.285
182.278	 -0.330	 -0.280
182.281	 -0.345	 -0.290
182.283	 -0.350	 -0.310
182.286	 -0.365	 -0.295
182.289	 -0.340	 -0.285
182.292	 -0.340	 -0.280
182.294	 -0.335	 -0.275
182.297	 -0.355	 -0.300
182.300	 -0.340	 -0.300
182.303	 -0.370	 -0.305
182.306	 -0.365	 -0.300
182.308	 -0.355	 -0.295
182.311	 -0.360	 -0.290
182.314	 -0.370	 -0.310
182.317	 -0.370	 -0.305
182.319	 -0.375	 -0.310
182.322	 -0.355	 -0.300
182.325	 -0.350	 -0.310
182.328	 -0.360	 -0.315
182.331	 -0.365	 -0.325
182.333	 -0.375	 -0.330
182.336	 -0.380	 -0.315
182.339	 -0.370	 -0.300
182.342	 -0.360	 -0.290
182.344	 -0.360	 -0.305
182.347	 -0.360	 -0.305
182.350	 -0.370	 -0.310
182.353	 -0.370	 -0.315
182.356	 -0.355	 -0.320
182.358	 -0.360	 -0.315
182.361	 -0.370	 -0.315
182.364	 -0.375	 -0.305
182.367	 -0.395	 -0.305
182.369	 -0.395	 -0.310
182.372	 -0.370	 -0.300
182.375	 -0.355	 -0.305
182.378	 -0.355	 -0.300
182.381	 -0.360	 -0.305
182.383	 -0.380	 -0.310
182.386	 -0.375	 -0.320
182.389	 -0.370	 -0.305
182.392	 -0.350	 -0.310
182.394	 -0.365	 -0.305
182.397	 -0.370	 -0.335
182.400	 -0.375	 -0.340
182.403	 -0.375	 -0.330
182.406	 -0.370	 -0.305
182.408	 -0.350	 -0.305
182.411	 -0.345	 -0.310
182.414	 -0.345	 -0.305
182.417	 -0.350	 -0.320
182.419	 -0.355	 -0.310
182.422	 -0.340	 -0.320
182.425	 -0.335	 -0.310
182.428	 -0.320	 -0.320
182.431	 -0.310	 -0.330
182.433	 -0.310	 -0.325
182.436	 -0.325	 -0.310
182.439	 -0.305	 -0.300
182.442	 -0.300	 -0.290
182.444	 -0.300	 -0.300
182.447	 -0.290	 -0.320
182.450	 -0.290	 -0.315
182.453	 -0.300	 -0.295
182.456	 -0.290	 -0.290
182.458	 -0.270	 -0.280
182.461	 -0.270	 -0.285
182.464	 -0.265	 -0.295
182.467	 -0.280	 -0.300
182.469	 -0.280	 -0.295
182.472	 -0.270	 -0.275
182.475	 -0.270	 -0.275
182.478	 -0.280	 -0.280
182.481	 -0.265	 -0.290
182.483	 -0.275	 -0.295
182.486	 -0.295	 -0.290
182.489	 -0.305	 -0.285
182.492	 -0.290	 -0.300
182.494	 -0.270	 -0.300
182.497	 -0.260	 -0.315
182.500	 -0.270	 -0.320
182.503	 -0.300	 -0.315
182.506	 -0.320	 -0.300
182.508	 -0.320	 -0.300
182.511	 -0.340	 -0.315
182.514	 -0.365	 -0.320
182.517	 -0.390	 -0.350
182.519	 -0.400	 -0.345
182.522	 -0.395	 -0.330
182.525	 -0.380	 -0.335
182.528	 -0.405	 -0.330
182.531	 -0.400	 -0.350
182.533	 -0.410	 -0.360
182.536	 -0.410	 -0.340
182.539	 -0.395	 -0.330
182.542	 -0.385	 -0.340
182.544	 -0.380	 -0.330
182.547	 -0.390	 -0.350
182.550	 -0.400	 -0.355
182.553	 -0.405	 -0.340
182.556	 -0.395	 -0.335
182.558	 -0.390	 -0.330
182.561	 -0.385	 -0.345
182.564	 -0.400	 -0.355
182.567	 -0.415	 -0.355
182.569	 -0.415	 -0.340
182.572	 -0.400	 -0.330
182.575	 -0.400	 -0.335
182.578	 -0.395	 -0.325
182.581	 -0.395	 -0.335
182.583	 -0.405	 -0.350
182.586	 -0.405	 -0.345
182.589	 -0.400	 -0.350
182.592	 -0.400	 -0.360
182.594	 -0.405	 -0.380
182.597	 -0.435	 -0.410
182.600	 -0.455	 -0.445
182.603	 -0.490	 -0.445
182.606	 -0.505	 -0.435
182.608	 -0.515	 -0.390
182.611	 -0.560	 -0.320
182.614	 -0.585	 -0.225
182.617	 -0.565	 -0.150
182.619	 -0.475	 -0.085
182.622	 -0.345	  0.005
182.625	 -0.190	  0.105
182.628	  0.015	  0.210
182.631	  0.265	  0.295
182.633	  0.520	  0.260
182.636	  0.715	  0.085
182.639	  0.805	 -0.185
182.642	  0.740	 -0.395
182.644	  0.460	 -0.460
182.647	  0.080	 -0.455
182.650	 -0.270	 -0.420
182.653	 -0.465	 -0.400
182.656	 -0.540	 -0.385
182.658	 -0.530	 -0.385
182.661	 -0.505	 -0.385
182.664	 -0.480	 -0.385
182.667	 -0.470	 -0.390
182.669	 -0.470	 -0.380
182.672	 -0.460	 -0.365
182.675	 -0.445	 -0.375
182.678	 -0.430	 -0.365
182.681	 -0.440	 -0.380
182.683	 -0.455	 -0.385
182.686	 -0.450	 -0.380
182.689	 -0.445	 -0.350
182.692	 -0.425	 -0.345
182.694	 -0.435	 -0.355
182.697	 -0.445	 -0.370
182.700	 -0.435	 -0.390
182.703	 -0.450	 -0.385
182.706	 -0.425	 -0.370
182.708	 -0.420	 -0.360
182.711	 -0.430	 -0.355
182.714	 -0.440	 -0.370
182.717	 -0.445	 -0.370
182.719	 -0.455	 -0.360
182.722	 -0.440	 -0.365
182.725	 -0.430	 -0.360
182.728	 -0.420	 -0.360
182.731	 -0.435	 -0.365
182.733	 -0.455	 -0.375
182.736	 -0.460	 -0.370
182.739	 -0.430	 -0.355
182.742	 -0.440	 -0.345
182.744	 -0.435	 -0.360
182.747	 -0.440	 -0.365
182.750	 -0.450	 -0.380
182.753	 -0.445	 -0.360
182.756	 -0.440	 -0.360
182.758	 -0.445	 -0.345
182.761	 -0.445	 -0.355
182.764	 -0.445	 -0.365
182.767	 -0.445	 -0.380
182.769	 -0.465	 -0.375
182.772	 -0.440	 -0.365
182.775	 -0.445	 -0.360
182.778	 -0.435	 -0.355
182.781	 -0.435	 -0.350
182.783	 -0.440	 -0.370
182.786	 -0.445	 -0.355
182.789	 -0.440	 -0.360
182.792	 -0.435	 -0.360
182.794	 -0.445	 -0.365
182.797	 -0.445	 -0.360
182.800	 -0.455	 -0.375
182.803	 -0.450	 -0.370
182.806	 -0.455	 -0.365
182.808	 -0.440	 -0.355
182.811	 -0.450	 -0.370
182.814	 -0.445	 -0.375
182.817	 -0.435	 -0.390
182.819	 -0.455	 -0.385
182.822	 -0.445	 -0.370
182.825	 -0.430	 -0.370
182.828	 -0.425	 -0.380
182.831	 -0.435	 -0.410
182.833	 -0.450	 -0.410
182.836	 -0.455	 -0.405
182.839	 -0.450	 -0.420
182.842	 -0.430	 -0.400
182.844	 -0.435	 -0.410
182.847	 -0.440	 -0.430
182.850	 -0.455	 -0.440
182.853	 -0.470	 -0.445
182.856	 -0.455	 -0.440
182.858	 -0.450	 -0.435
182.861	 -0.450	 -0.445
182.864	 -0.455	 -0.465
182.867	 -0.465	 -0.475
182.869	 -0.480	 -0.475
182.872	 -0.475	 -0.475
182.875	 -0.465	 -0.475
182.878	 -0.480	 -0.490
182.881	 -0.500	 -0.500
182.883	 -0.505	 -0.505
182.886	 -0.505	 -0.495
182.889	 -0.505	 -0.485
182.892	 -0.490	 -0.470
182.894	 -0.490	 -0.480
182.897	 -0.490	 -0.495
182.900	 -0.500	 -0.490
182.903	 -0.505	 -0.470
182.906	 -0.495	 -0.445
182.908	 -0.485	 -0.445
182.911	 -0.470	 -0.435
182.914	 -0.465	 -0.440
182.917	 -0.465	 -0.435
182.919	 -0.465	 -0.415
182.922	 -0.450	 -0.400
182.925	 -0.440	 -0.385
182.928	 -0.420	 -0.400
182.931	 -0.425	 -0.395
182.933	 -0.425	 -0.390
182.936	 -0.410	 -0.365
182.939	 -0.405	 -0.350
182.942	 -0.385	 -0.330
182.944	 -0.375	 -0.310
182.947	 -0.380	 -0.320
182.950	 -0.365	 -0.325
182.953	 -0.365	 -0.310
182.956	 -0.350	 -0.300
182.958	 -0.325	 -0.290
182.961	 -0.340	 -0.285
182.964	 -0.335	 -0.305
182.967	 -0.350	 -0.315
182.969	 -0.345	 -0.295
182.972	 -0.340	 -0.295
182.975	 -0.325	 -0.290
182.978	 -0.325	 -0.295
182.981	 -0.330	 -0.290
182.983	 -0.325	 -0.300
182.986	 -0.330	 -0.295
182.989	 -0.325	 -0.295
182.992	 -0.305	 -0.290
182.994	 -0.320	 -0.295
182.997	 -0.320	 -0.300
183.000	 -0.335	 -0.300
183.003	 -0.340	 -0.305
183.006	 -0.335	 -0.285
183.008	 -0.330	 -0.290
183.011	 -0.335	 -0.305
183.014	 -0.340	 -0.305
183.017	 -0.340	 -0.310
183.019	 -0.345	 -0.295
183.022	 -0.340	 -0.300
183.025	 -0.320	 -0.300
183.028	 -0.335	 -0.305
183.031	 -0.335	 -0.310
183.033	 -0.340	 -0.320
183.036	 -0.340	 -0.305
183.039	 -0.330	 -0.290
183.042	 -0.325	 -0.305
183.044	 -0.345	 -0.300
183.047	 -0.335	 -0.305
183.050	 -0.340	 -0.320
183.053	 -0.345	 -0.315
183.056	 -0.340	 -0.310
183.058	 -0.330	 -0.295
183.061	 -0.335	 -0.310
183.064	 -0.340	 -0.320
183.067	 -0.350	 -0.315
183.069	 -0.365	 -0.315
183.072	 -0.350	 -0.315
183.075	 -0.335	 -0.305
183.078	 -0.350	 -0.305
183.081	 -0.350	 -0.320
183.083	 -0.355	 -0.320
183.086	 -0.355	 -0.320
183.089	 -0.355	 -0.300
183.092	 -0.340	 -0.295
183.094	 -0.345	 -0.310
183.097	 -0.350	 -0.320
183.100	 -0.360	 -0.330
183.103	 -0.345	 -0.325
183.106	 -0.355	 -0.305
183.108	 -0.340	 -0.310
183.111	 -0.350	 -0.305
183.114	 -0.345	 -0.315
183.117	 -0.360	 -0.320
183.119	 -0.360	 -0.315
183.122	 -0.345	 -0.310
183.125	 -0.340	 -0.295
183.128	 -0.345	 -0.295
183.131	 -0.345	 -0.315
183.133	 -0.355	 -0.300
183.136	 -0.360	 -0.300
183.139	 -0.355	 -0.300
183.142	 -0.320	 -0.295
183.144	 -0.340	 -0.305
183.147	 -0.340	 -0.305
183.150	 -0.345	 -0.310
183.153	 -0.350	 -0.295
183.156	 -0.340	 -0.280
183.158	 -0.335	 -0.285
183.161	 -0.325	 -0.290
183.164	 -0.345	 -0.315
183.167	 -0.340	 -0.295
183.169	 -0.350	 -0.295
183.172	 -0.340	 -0.285
183.175	 -0.315	 -0.285
183.178	 -0.330	 -0.290
183.181	 -0.340	 -0.295
183.183	 -0.340	 -0.305
183.186	 -0.340	 -0.300
183.189	 -0.325	 -0.285
183.192	 -0.320	 -0.285
183.194	 -0.320	 -0.285
183.197	 -0.315	 -0.300
183.200	 -0.305	 -0.310
183.203	 -0.285	 -0.305
183.206	 -0.270	 -0.295
183.208	 -0.260	 -0.280
183.211	 -0.260	 -0.290
183.214	 -0.265	 -0.285
183.217	 -0.275	 -0.280
183.219	 -0.265	 -0.270
183.222	 -0.240	 -0.260
183.225	 -0.230	 -0.255
183.228	 -0.220	 -0.260
183.231	 -0.230	 -0.265
183.233	 -0.230	 -0.270
183.236	 -0.235	 -0.260
183.239	 -0.215	 -0.250
183.242	 -0.220	 -0.240
183.244	 -0.230	 -0.240
183.247	 -0.230	 -0.250
183.250	 -0.245	 -0.250
183.253	 -0.255	 -0.235
183.256	 -0.250	 -0.220
183.258	 -0.235	 -0.225
183.261	 -0.235	 -0.230
183.264	 -0.235	 -0.240
183.267	 -0.245	 -0.235
183.269	 -0.260	 -0.235
183.272	 -0.255	 -0.230
183.275	 -0.225	 -0.235
183.278	 -0.220	 -0.255
183.281	 -0.205	 -0.250
183.283	 -0.230	 -0.260
183.286	 -0.265	 -0.260
183.289	 -0.280	 -0.255
183.292	 -0.290	 -0.250
183.294	 -0.290	 -0.270
183.297	 -0.305	 -0.285
183.300	 -0.330	 -0.290
183.303	 -0.335	 -0.290
183.306	 -0.335	 -0.275
183.308	 -0.330	 -0.265
183.311	 -0.320	 -0.280
183.314	 -0.335	 -0.285
183.317	 -0.330	 -0.290
183.319	 -0.345	 -0.285
183.322	 -0.340	 -0.280
183.325	 -0.340	 -0.280
183.328	 -0.335	 -0.280
183.331	 -0.340	 -0.290
183.333	 -0.355	 -0.295
183.336	 -0.350	 -0.300
183.339	 -0.340	 -0.280
183.342	 -0.330	 -0.275
183.344	 -0.350	 -0.280
183.347	 -0.345	 -0.295
183.350	 -0.350	 -0.295
183.353	 -0.360	 -0.295
183.356	 -0.355	 -0.285
183.358	 -0.340	 -0.295
183.361	 -0.335	 -0.310
183.364	 -0.355	 -0.355
183.367	 -0.375	 -0.375
183.369	 -0.410	 -0.385
183.372	 -0.445	 -0.410
183.375	 -0.450	 -0.405
183.378	 -0.475	 -0.375
183.381	 -0.520	 -0.295
183.383	 -0.545	 -0.195
183.386	 -0.550	 -0.080
183.389	 -0.465	  0.015
183.392	 -0.350	  0.075
183.394	 -0.230	  0.125
183.397	 -0.135	  0.205
183.400	 -0.010	  0.280
183.403	  0.145	  0.360
183.406	  0.360	  0.450
183.408	  0.565	  0.545
183.411	  0.740	  0.620
183.414	  0.865	  0.640
183.417	  0.950	  0.550
183.419	  1.020	  0.290
183.422	  1.005	 -0.040
183.425	  0.845	 -0.260
183.428	  0.500	 -0.315
183.431	  0.065	 -0.310
183.433	 -0.285	 -0.310
183.436	 -0.470	 -0.310
183.439	 -0.480	 -0.295
183.442	 -0.425	 -0.300
183.444	 -0.370	 -0.300
183.447	 -0.370	 -0.300
183.450	 -0.385	 -0.325
183.453	 -0.395	 -0.315
183.456	 -0.375	 -0.305
183.458	 -0.365	 -0.310
183.461	 -0.365	 -0.310
183.464	 -0.380	 -0.330
183.467	 -0.395	 -0.325
183.469	 -0.395	 -0.325
183.472	 -0.400	 -0.315
183.475	 -0.370	 -0.300
183.478	 -0.380	 -0.310
183.481	 -0.390	 -0.310
183.483	 -0.395	 -0.315
183.486	 -0.410	 -0.320
183.489	 -0.400	 -0.300
183.492	 -0.385	 -0.290
183.494	 -0.390	 -0.310
183.497	 -0.400	 -0.305
183.500	 -0.405	 -0.315
183.503	 -0.410	 -0.310
183.506	 -0.400	 -0.305
183.508	 -0.395	 -0.305
183.511	 -0.390	 -0.300
183.514	 -0.395	 -0.310
183.517	 -0.395	 -0.320
183.519	 -0.405	 -0.305
183.522	 -0.395	 -0.305
183.525	 -0.385	 -0.300
183.528	 -0.390	 -0.300
183.531	 -0.385	 -0.305
183.533	 -0.400	 -0.310
183.536	 -0.410	 -0.300
183.539	 -0.400	 -0.295
183.542	 -0.370	 -0.295
183.544	 -0.375	 -0.300
183.547	 -0.380	 -0.310
183.550	 -0.385	 -0.315
183.553	 -0.385	 -0.305
183.556	 -0.380	 -0.300
183.558	 -0.380	 -0.295
183.561	 -0.375	 -0.305
183.564	 -0.395	 -0.315
183.567	 -0.395	 -0.325
183.569	 -0.395	 -0.310
183.572	 -0.380	 -0.305
183.575	 -0.375	 -0.310
183.578	 -0.365	 -0.315
183.581	 -0.380	 -0.315
183.583	 -0.395	 -0.325
183.586	 -0.395	 -0.325
183.589	 -0.390	 -0.320
183.592	 -0.380	 -0.315
183.594	 -0.380	 -0.325
183.597	 -0.385	 -0.335
183.600	 -0.395	 -0.340
183.603	 -0.400	 -0.345
183.606	 -0.390	 -0.335
183.608	 -0.385	 -0.335
183.611	 -0.380	 -0.345
183.614	 -0.400	 -0.355
183.617	 -0.395	 -0.365
183.619	 -0.395	 -0.365
183.622	 -0.380	 -0.370
183.625	 -0.380	 -0.370
183.628	 -0.380	 -0.375
183.631	 -0.385	 -0.400
183.633	 -0.405	 -0.410
183.636	 -0.395	 -0.415
183.639	 -0.400	 -0.410
183.642	 -0.385	 -0.420
183.644	 -0.390	 -0.415
183.647	 -0.400	 -0.435
183.650	 -0.410	 -0.440
183.653	 -0.410	 -0.445
183.656	 -0.405	 -0.435
183.658	 -0.410	 -0.435
183.661	 -0.400	 -0.445
183.664	 -0.405	 -0.460
183.667	 -0.420	 -0.455
183.669	 -0.415	 -0.440
183.672	 -0.400	 -0.415
183.675	 -0.390	 -0.425
183.678	 -0.400	 -0.415
183.681	 -0.400	 -0.425
183.683	 -0.405	 -0.415
183.686	 -0.390	 -0.400
183.689	 -0.390	 -0.360
183.692	 -0.375	 -0.355
183.694	 -0.355	 -0.335
183.697	 -0.360	 -0.335
183.700	 -0.365	 -0.335
183.703	 -0.365	 -0.315
183.706	 -0.335	 -0.295
183.708	 -0.320	 -0.280
183.711	 -0.320	 -0.270
183.714	 -0.305	 -0.265
183.717	 -0.315	 -0.275
183.719	 -0.305	 -0.260
183.722	 -0.300	 -0.250
183.725	 -0.290	 -0.235
183.728	 -0.285	 -0.250
183.731	 -0.290	 -0.260
183.733	 -0.300	 -0.255
183.736	 -0.300	 -0.245
183.739	 -0.295	 -0.240
183.742	 -0.285	 -0.230
183.744	 -0.275	 -0.235
183.747	 -0.290	 -0.245
183.750	 -0.285	 -0.255
183.753	 -0.285	 -0.250
183.756	 -0.280	 -0.235
183.758	 -0.270	 -0.235
183.761	 -0.270	 -0.240
183.764	 -0.285	 -0.245
183.767	 -0.295	 -0.250
183.769	 -0.295	 -0.255
183.772	 -0.280	 -0.245
183.775	 -0.285	 -0.240
183.778	 -0.295	 -0.235
183.781	 -0.290	 -0.250
183.783	 -0.295	 -0.250
183.786	 -0.305	 -0.250
183.789	 -0.310	 -0.245
183.792	 -0.290	 -0.245
183.794	 -0.280	 -0.250
183.797	 -0.305	 -0.255
183.800	 -0.305	 -0.265
183.803	 -0.305	 -0.260
183.806	 -0.295	 -0.245
183.808	 -0.305	 -0.250
183.811	 -0.295	 -0.250
183.814	 -0.300	 -0.270
183.817	 -0.305	 -0.270
183.819	 -0.315	 -0.265
183.822	 -0.305	 -0.260
183.825	 -0.295	 -0.245
183.828	 -0.305	 -0.255
183.831	 -0.300	 -0.275
183.833	 -0.315	 -0.280
183.836	 -0.325	 -0.285
183.839	 -0.300	 -0.275
183.842	 -0.315	 -0.265
183.844	 -0.305	 -0.265
183.847	 -0.310	 -0.280
183.850	 -0.325	 -0.285
183.853	 -0.335	 -0.290
183.856	 -0.315	 -0.280
183.858	 -0.315	 -0.275
183.861	 -0.325	 -0.280
183.864	 -0.325	 -0.280
183.867	 -0.335	 -0.280
183.869	 -0.335	 -0.275
183.872	 -0.320	 -0.270
183.875	 -0.325	 -0.265
183.878	 -0.310	 -0.265
183.881	 -0.325	 -0.285
183.883	 -0.345	 -0.285
183.886	 -0.345	 -0.290
183.889	 -0.340	 -0.275
183.892	 -0.320	 -0.270
183.894	 -0.325	 -0.275
183.897	 -0.335	 -0.280
183.900	 -0.350	 -0.285
183.903	 -0.340	 -0.285
183.906	 -0.340	 -0.275
183.908	 -0.330	 -0.265
183.911	 -0.325	 -0.280
183.914	 -0.330	 -0.280
183.917	 -0.345	 -0.270
183.919	 -0.345	 -0.280
183.922	 -0.335	 -0.275
183.925	 -0.320	 -0.270
183.928	 -0.325	 -0.270
183.931	 -0.330	 -0.270
183.933	 -0.345	 -0.280
183.936	 -0.350	 -0.275
183.939	 -0.335	 -0.255
183.942	 -0.320	 -0.265
183.944	 -0.325	 -0.270
183.947	 -0.325	 -0.280
183.950	 -0.335	 -0.285
183.953	 -0.345	 -0.270
183.956	 -0.320	 -0.270
183.958	 -0.320	 -0.255
183.961	 -0.320	 -0.255
183.964	 -0.350	 -0.265
183.967	 -0.345	 -0.285
183.969	 -0.335	 -0.275
183.972	 -0.320	 -0.265
183.975	 -0.315	 -0.260
183.978	 -0.295	 -0.270
183.981	 -0.300	 -0.275
183.983	 -0.285	 -0.280
183.986	 -0.280	 -0.275
183.989	 -0.260	 -0.255
183.992	 -0.250	 -0.250
183.994	 -0.245	 -0.250
183.997	 -0.255	 -0.250
184.000	 -0.250	 -0.245
184.003	 -0.255	 -0.240
184.006	 -0.235	 -0.235
184.008	 -0.225	 -0.225
184.011	 -0.215	 -0.215
184.014	 -0.220	 -0.230
184.017	 -0.225	 -0.240
184.019	 -0.245	 -0.225
184.022	 -0.225	 -0.215
184.025	 -0.220	 -0.210
184.028	 -0.225	 -0.200
184.031	 -0.235	 -0.200
184.033	 -0.255	 -0.205
184.036	 -0.260	 -0.205
184.039	 -0.240	 -0.200
184.042	 -0.235	 -0.190
184.044	 -0.235	 -0.210
184.047	 -0.250	 -0.200
184.050	 -0.260	 -0.215
184.053	 -0.270	 -0.210
184.056	 -0.245	 -0.205
184.058	 -0.220	 -0.205
184.061	 -0.205	 -0.215
184.064	 -0.225	 -0.240
184.067	 -0.250	 -0.240
184.069	 -0.280	 -0.240
184.072	 -0.280	 -0.225
184.075	 -0.295	 -0.235
184.078	 -0.305	 -0.240
184.081	 -0.320	 -0.255
184.083	 -0.345	 -0.250
184.086	 -0.350	 -0.260
184.089	 -0.350	 -0.260
184.092	 -0.340	 -0.235
184.094	 -0.340	 -0.240
184.097	 -0.350	 -0.260
184.100	 -0.350	 -0.270
184.103	 -0.355	 -0.265
184.106	 -0.355	 -0.255
184.108	 -0.355	 -0.245
184.111	 -0.360	 -0.250
184.114	 -0.355	 -0.255
184.117	 -0.365	 -0.265
184.119	 -0.370	 -0.255
184.122	 -0.365	 -0.250
184.125	 -0.365	 -0.250
184.128	 -0.360	 -0.260
184.131	 -0.365	 -0.260
184.133	 -0.360	 -0.270
184.136	 -0.365	 -0.265
184.139	 -0.360	 -0.280
184.142	 -0.360	 -0.305
184.144	 -0.370	 -0.325
184.147	 -0.395	 -0.365
184.150	 -0.445	 -0.400
184.153	 -0.485	 -0.415
184.156	 -0.495	 -0.345
184.158	 -0.520	 -0.275
184.161	 -0.550	 -0.145
184.164	 -0.555	 -0.030
184.167	 -0.475	  0.055
184.169	 -0.355	  0.185
184.172	 -0.185	  0.315
184.175	 -0.015	  0.435
184.178	  0.250	  0.555
184.181	  0.535	  0.600
184.183	  0.765	  0.485
184.186	  0.875	  0.215
184.189	  0.890	 -0.095
184.192	  0.710	 -0.280
184.194	  0.330	 -0.315
184.197	 -0.080	 -0.300
184.200	 -0.375	 -0.305
184.203	 -0.510	 -0.290
184.206	 -0.510	 -0.290
184.208	 -0.470	 -0.275
184.211	 -0.425	 -0.270
184.214	 -0.395	 -0.290
184.217	 -0.385	 -0.300
184.219	 -0.390	 -0.310
184.222	 -0.395	 -0.300
184.225	 -0.395	 -0.285
184.228	 -0.385	 -0.290
184.231	 -0.380	 -0.295
184.233	 -0.385	 -0.305
184.236	 -0.400	 -0.295
184.239	 -0.395	 -0.295
184.242	 -0.380	 -0.300
184.244	 -0.390	 -0.295
184.247	 -0.395	 -0.295
184.250	 -0.415	 -0.305
184.253	 -0.410	 -0.295
184.256	 -0.405	 -0.280
184.258	 -0.395	 -0.280
184.261	 -0.395	 -0.290
184.264	 -0.410	 -0.290
184.267	 -0.415	 -0.295
184.269	 -0.400	 -0.290
184.272	 -0.405	 -0.280
184.275	 -0.395	 -0.270
184.278	 -0.395	 -0.280
184.281	 -0.400	 -0.295
184.283	 -0.410	 -0.295
184.286	 -0.425	 -0.290
184.289	 -0.390	 -0.270
184.292	 -0.390	 -0.275
184.294	 -0.390	 -0.255
184.297	 -0.390	 -0.280
184.300	 -0.395	 -0.290
184.303	 -0.400	 -0.285
184.306	 -0.390	 -0.280
184.308	 -0.375	 -0.280
184.311	 -0.385	 -0.265
184.314	 -0.395	 -0.270
184.317	 -0.385	 -0.280
184.319	 -0.400	 -0.280
184.322	 -0.375	 -0.275
184.325	 -0.380	 -0.275
184.328	 -0.385	 -0.285
184.331	 -0.380	 -0.280
184.333	 -0.395	 -0.290
184.336	 -0.405	 -0.280
184.339	 -0.395	 -0.270
184.342	 -0.385	 -0.275
184.344	 -0.390	 -0.285
184.347	 -0.380	 -0.295
184.350	 -0.390	 -0.310
184.353	 -0.400	 -0.290
184.356	 -0.395	 -0.295
184.358	 -0.385	 -0.270
184.361	 -0.390	 -0.285
184.364	 -0.390	 -0.295
184.367	 -0.400	 -0.305
184.369	 -0.400	 -0.310
184.372	 -0.385	 -0.290
184.375	 -0.380	 -0.295
184.378	 -0.390	 -0.310
184.381	 -0.390	 -0.315
184.383	 -0.395	 -0.320
184.386	 -0.385	 -0.320
184.389	 -0.390	 -0.305
184.392	 -0.380	 -0.310
184.394	 -0.375	 -0.315
184.397	 -0.385	 -0.335
184.400	 -0.400	 -0.355
184.403	 -0.395	 -0.340
184.406	 -0.390	 -0.340
184.408	 -0.380	 -0.335
184.411	 -0.385	 -0.340
184.414	 -0.390	 -0.360
184.417	 -0.395	 -0.385
184.419	 -0.405	 -0.380
184.422	 -0.395	 -0.380
184.425	 -0.390	 -0.375
184.428	 -0.395	 -0.385
184.431	 -0.395	 -0.390
184.433	 -0.415	 -0.405
184.436	 -0.410	 -0.400
184.439	 -0.400	 -0.410
184.442	 -0.415	 -0.395
184.444	 -0.400	 -0.395
184.447	 -0.405	 -0.410
184.450	 -0.410	 -0.420
184.453	 -0.420	 -0.405
184.456	 -0.400	 -0.390
184.458	 -0.390	 -0.390
184.461	 -0.390	 -0.375
184.464	 -0.395	 -0.380
184.467	 -0.395	 -0.375
184.469	 -0.405	 -0.360
184.472	 -0.375	 -0.325
184.475	 -0.370	 -0.325
184.478	 -0.360	 -0.305
184.481	 -0.360	 -0.300
184.483	 -0.365	 -0.300
184.486	 -0.355	 -0.290
184.489	 -0.340	 -0.265
184.492	 -0.325	 -0.250
184.494	 -0.320	 -0.245
184.497	 -0.315	 -0.245
184.500	 -0.320	 -0.250
184.503	 -0.320	 -0.235
184.506	 -0.305	 -0.215
184.508	 -0.295	 -0.220
184.511	 -0.295	 -0.210
184.514	 -0.300	 -0.225
184.517	 -0.310	 -0.215
184.519	 -0.305	 -0.225
184.522	 -0.295	 -0.200
184.525	 -0.290	 -0.185
184.528	 -0.290	 -0.200
184.531	 -0.295	 -0.215
184.533	 -0.300	 -0.220
184.536	 -0.290	 -0.215
184.539	 -0.290	 -0.205
184.542	 -0.290	 -0.205
184.544	 -0.285	 -0.205
184.547	 -0.295	 -0.210
184.550	 -0.305	 -0.225
184.553	 -0.305	 -0.210
184.556	 -0.285	 -0.200
184.558	 -0.285	 -0.205
184.561	 -0.285	 -0.210
184.564	 -0.285	 -0.215
184.567	 -0.295	 -0.230
184.569	 -0.305	 -0.225
184.572	 -0.300	 -0.210
184.575	 -0.295	 -0.215
184.578	 -0.295	 -0.210
184.581	 -0.310	 -0.235
184.583	 -0.320	 -0.230
184.586	 -0.315	 -0.235
184.589	 -0.310	 -0.230
184.592	 -0.305	 -0.215
184.594	 -0.305	 -0.225
184.597	 -0.320	 -0.230
184.600	 -0.320	 -0.245
184.603	 -0.320	 -0.225
184.606	 -0.315	 -0.220
184.608	 -0.300	 -0.225
184.611	 -0.300	 -0.225
184.614	 -0.310	 -0.230
184.617	 -0.315	 -0.235
184.619	 -0.315	 -0.225
184.622	 -0.315	 -0.220
184.625	 -0.315	 -0.230
184.628	 -0.300	 -0.230
184.631	 -0.315	 -0.240
184.633	 -0.310	 -0.250
184.636	 -0.325	 -0.235
184.639	 -0.325	 -0.235
184.642	 -0.315	 -0.235
184.644	 -0.315	 -0.230
184.647	 -0.320	 -0.240
184.650	 -0.325	 -0.255
184.653	 -0.335	 -0.250
184.656	 -0.330	 -0.230
184.658	 -0.325	 -0.215
184.661	 -0.325	 -0.225
184.664	 -0.340	 -0.240
184.667	 -0.335	 -0.245
184.669	 -0.345	 -0.255
184.672	 -0.330	 -0.240
184.675	 -0.320	 -0.230
184.678	 -0.330	 -0.235
184.681	 -0.335	 -0.235
184.683	 -0.340	 -0.240
184.686	 -0.345	 -0.245
184.689	 -0.325	 -0.220
184.692	 -0.335	 -0.215
184.694	 -0.325	 -0.230
184.697	 -0.330	 -0.250
184.700	 -0.335	 -0.245
184.703	 -0.340	 -0.250
184.706	 -0.335	 -0.230
184.708	 -0.325	 -0.230
184.711	 -0.330	 -0.220
184.714	 -0.330	 -0.230
184.717	 -0.340	 -0.245
184.719	 -0.335	 -0.240
184.722	 -0.325	 -0.230
184.725	 -0.315	 -0.215
184.728	 -0.340	 -0.225
184.731	 -0.345	 -0.235
184.733	 -0.340	 -0.250
184.736	 -0.340	 -0.230
184.739	 -0.330	 -0.215
184.742	 -0.320	 -0.205
184.744	 -0.315	 -0.220
184.747	 -0.315	 -0.220
184.750	 -0.335	 -0.230
184.753	 -0.330	 -0.225
184.756	 -0.320	 -0.215
184.758	 -0.305	 -0.210
184.761	 -0.315	 -0.200
184.764	 -0.330	 -0.220
184.767	 -0.330	 -0.230
184.769	 -0.340	 -0.220
184.772	 -0.325	 -0.210
184.775	 -0.320	 -0.220
184.778	 -0.315	 -0.205
184.781	 -0.310	 -0.215
184.783	 -0.320	 -0.220
184.786	 -0.325	 -0.215
184.789	 -0.295	 -0.215
184.792	 -0.280	 -0.195
184.794	 -0.280	 -0.195
184.797	 -0.270	 -0.215
184.800	 -0.275	 -0.205
184.803	 -0.280	 -0.195
184.806	 -0.265	 -0.190
184.808	 -0.260	 -0.180
184.811	 -0.245	 -0.170
184.814	 -0.240	 -0.180
184.817	 -0.240	 -0.180
184.819	 -0.240	 -0.180
184.822	 -0.200	 -0.160
184.825	 -0.190	 -0.160
184.828	 -0.200	 -0.155
184.831	 -0.210	 -0.170
184.833	 -0.225	 -0.160
184.836	 -0.240	 -0.150
184.839	 -0.235	 -0.135
184.842	 -0.230	 -0.130
184.844	 -0.220	 -0.135
184.847	 -0.220	 -0.145
184.850	 -0.240	 -0.150
184.853	 -0.240	 -0.140
184.856	 -0.245	 -0.135
184.858	 -0.240	 -0.135
184.861	 -0.230	 -0.150
184.864	 -0.210	 -0.165
184.867	 -0.205	 -0.170
184.869	 -0.205	 -0.175
184.872	 -0.220	 -0.175
184.875	 -0.225	 -0.175
184.878	 -0.255	 -0.175
184.881	 -0.270	 -0.170
184.883	 -0.285	 -0.180
184.886	 -0.295	 -0.185
184.889	 -0.300	 -0.170
184.892	 -0.305	 -0.175
184.894	 -0.310	 -0.195
184.897	 -0.320	 -0.215
184.900	 -0.330	 -0.220
184.903	 -0.345	 -0.210
184.906	 -0.350	 -0.195
184.908	 -0.345	 -0.190
184.911	 -0.340	 -0.200
184.914	 -0.335	 -0.205
184.917	 -0.350	 -0.220
184.919	 -0.350	 -0.205
184.922	 -0.350	 -0.210
184.925	 -0.340	 -0.210
184.928	 -0.350	 -0.210
184.931	 -0.365	 -0.215
184.933	 -0.370	 -0.225
184.936	 -0.375	 -0.210
184.939	 -0.360	 -0.215
184.942	 -0.360	 -0.200
184.944	 -0.355	 -0.210
184.947	 -0.360	 -0.230
184.950	 -0.370	 -0.225
184.953	 -0.370	 -0.225
184.956	 -0.360	 -0.210
184.958	 -0.350	 -0.210
184.961	 -0.350	 -0.245
184.964	 -0.370	 -0.275
184.967	 -0.385	 -0.295
184.969	 -0.420	 -0.315
184.972	 -0.445	 -0.335
184.975	 -0.465	 -0.355
184.978	 -0.475	 -0.325
184.981	 -0.500	 -0.285
184.983	 -0.555	 -0.210
184.986	 -0.590	 -0.100
184.989	 -0.535	 -0.005
184.992	 -0.445	  0.070
184.994	 -0.335	  0.165
184.997	 -0.215	  0.250
185.000	 -0.040	  0.345
185.003	  0.210	  0.455
185.006	  0.475	  0.490
185.008	  0.675	  0.385
185.011	  0.780	  0.120
185.014	  0.775	 -0.155
185.017	  0.625	 -0.310
185.019	  0.330	 -0.315
185.022	 -0.010	 -0.275
185.025	 -0.275	 -0.250
185.028	 -0.440	 -0.250
185.031	 -0.500	 -0.260
185.033	 -0.485	 -0.255
185.036	 -0.435	 -0.240
185.039	 -0.395	 -0.245
185.042	 -0.380	 -0.250
185.044	 -0.385	 -0.250
185.047	 -0.375	 -0.245
185.050	 -0.390	 -0.250
185.053	 -0.405	 -0.240
185.056	 -0.385	 -0.230
185.058	 -0.380	 -0.225
185.061	 -0.385	 -0.235
185.064	 -0.395	 -0.245
185.067	 -0.395	 -0.255
185.069	 -0.385	 -0.250
185.072	 -0.395	 -0.240
185.075	 -0.390	 -0.240
185.078	 -0.390	 -0.245
185.081	 -0.400	 -0.245
185.083	 -0.405	 -0.260
185.086	 -0.415	 -0.255
185.089	 -0.400	 -0.230
185.092	 -0.395	 -0.240
185.094	 -0.395	 -0.245
185.097	 -0.405	 -0.250
185.100	 -0.410	 -0.250
185.103	 -0.415	 -0.245
185.106	 -0.400	 -0.245
185.108	 -0.395	 -0.240
185.111	 -0.390	 -0.255
185.114	 -0.395	 -0.255
185.117	 -0.410	 -0.270
185.119	 -0.420	 -0.255
185.122	 -0.400	 -0.245
185.125	 -0.395	 -0.235
185.128	 -0.395	 -0.230
185.131	 -0.395	 -0.250
185.133	 -0.400	 -0.260
185.136	 -0.405	 -0.255
185.139	 -0.405	 -0.245
185.142	 -0.390	 -0.235
185.144	 -0.395	 -0.235
185.147	 -0.395	 -0.245
185.150	 -0.395	 -0.250
185.153	 -0.405	 -0.245
185.156	 -0.400	 -0.240
185.158	 -0.400	 -0.240
185.161	 -0.400	 -0.245
185.164	 -0.400	 -0.240
185.167	 -0.415	 -0.260
185.169	 -0.410	 -0.240
185.172	 -0.410	 -0.235
185.175	 -0.395	 -0.235
185.178	 -0.390	 -0.235
185.181	 -0.405	 -0.250
185.183	 -0.390	 -0.260
185.186	 -0.400	 -0.255
185.189	 -0.385	 -0.255
185.192	 -0.395	 -0.240
185.194	 -0.385	 -0.245
185.197	 -0.390	 -0.255
185.200	 -0.395	 -0.260
185.203	 -0.395	 -0.265
185.206	 -0.380	 -0.265
185.208	 -0.385	 -0.245
185.211	 -0.385	 -0.265
185.214	 -0.390	 -0.270
185.217	 -0.385	 -0.295
185.219	 -0.385	 -0.275
185.222	 -0.360	 -0.270
185.225	 -0.360	 -0.260
185.228	 -0.360	 -0.265
185.231	 -0.350	 -0.280
185.233	 -0.355	 -0.290
185.236	 -0.350	 -0.295
185.239	 -0.340	 -0.290
185.242	 -0.325	 -0.285
185.244	 -0.320	 -0.285
185.247	 -0.320	 -0.285
185.250	 -0.320	 -0.290
185.253	 -0.320	 -0.265
185.256	 -0.290	 -0.260
185.258	 -0.280	 -0.260
185.261	 -0.265	 -0.270
185.264	 -0.270	 -0.295
185.267	 -0.275	 -0.320
185.269	 -0.285	 -0.315
185.272	 -0.290	 -0.305
185.275	 -0.280	 -0.305
185.278	 -0.270	 -0.300
185.281	 -0.290	 -0.315
185.283	 -0.280	 -0.320
185.286	 -0.285	 -0.335
185.289	 -0.250	 -0.335
185.292	 -0.240	 -0.320
185.294	 -0.265	 -0.325
185.297	 -0.300	 -0.335
185.300	 -0.315	 -0.330
185.303	 -0.335	 -0.330
185.306	 -0.330	 -0.310
185.308	 -0.345	 -0.310
185.311	 -0.350	 -0.320
185.314	 -0.365	 -0.330
185.317	 -0.395	 -0.335
185.319	 -0.415	 -0.315
185.322	 -0.405	 -0.300
185.325	 -0.400	 -0.285
185.328	 -0.380	 -0.270
185.331	 -0.390	 -0.280
185.333	 -0.390	 -0.280
185.336	 -0.395	 -0.275
185.339	 -0.385	 -0.255
185.342	 -0.370	 -0.230
185.344	 -0.355	 -0.235
185.347	 -0.370	 -0.240
185.350	 -0.375	 -0.230
185.353	 -0.370	 -0.225
185.356	 -0.355	 -0.210
185.358	 -0.350	 -0.200
185.361	 -0.340	 -0.205
185.364	 -0.345	 -0.215
185.367	 -0.345	 -0.220
185.369	 -0.350	 -0.205
185.372	 -0.330	 -0.200
185.375	 -0.340	 -0.185
185.378	 -0.345	 -0.200
185.381	 -0.335	 -0.215
185.383	 -0.345	 -0.220
185.386	 -0.345	 -0.225
185.389	 -0.350	 -0.205
185.392	 -0.340	 -0.200
185.394	 -0.350	 -0.205
185.397	 -0.360	 -0.205
185.400	 -0.370	 -0.210
185.403	 -0.375	 -0.220
185.406	 -0.355	 -0.195
185.408	 -0.350	 -0.200
185.411	 -0.350	 -0.195
185.414	 -0.350	 -0.215
185.417	 -0.350	 -0.225
185.419	 -0.360	 -0.215
185.422	 -0.345	 -0.195
185.425	 -0.345	 -0.200
185.428	 -0.350	 -0.210
185.431	 -0.355	 -0.215
185.433	 -0.365	 -0.220
185.436	 -0.370	 -0.220
185.439	 -0.365	 -0.215
185.442	 -0.350	 -0.220
185.444	 -0.360	 -0.215
185.447	 -0.360	 -0.220
185.450	 -0.375	 -0.225
185.453	 -0.370	 -0.225
185.456	 -0.365	 -0.215
185.458	 -0.355	 -0.210
185.461	 -0.340	 -0.210
185.464	 -0.355	 -0.220
185.467	 -0.375	 -0.225
185.469	 -0.380	 -0.220
185.472	 -0.370	 -0.205
185.475	 -0.360	 -0.200
185.478	 -0.340	 -0.220
185.481	 -0.355	 -0.210
185.483	 -0.355	 -0.235
185.486	 -0.370	 -0.240
185.489	 -0.365	 -0.240
185.492	 -0.360	 -0.245
185.494	 -0.385	 -0.260
185.497	 -0.400	 -0.270
185.500	 -0.425	 -0.275
185.503	 -0.420	 -0.250
185.506	 -0.415	 -0.150
185.508	 -0.410	 -0.010
185.511	 -0.400	  0.150
185.514	 -0.310	  0.270
185.517	 -0.165	  0.345
185.519	  0.025	  0.430
185.522	  0.225	  0.525
185.525	  0.405	  0.605
185.528	  0.635	  0.595
185.531	  0.870	  0.395
185.533	  1.015	  0.005
185.536	  0.995	 -0.320
185.539	  0.735	 -0.455
185.542	  0.290	 -0.415
185.544	 -0.150	 -0.330
185.547	 -0.420	 -0.265
185.550	 -0.520	 -0.255
185.553	 -0.490	 -0.250
185.556	 -0.420	 -0.250
185.558	 -0.375	 -0.225
185.561	 -0.365	 -0.220
185.564	 -0.370	 -0.230
185.567	 -0.370	 -0.225
185.569	 -0.380	 -0.225
185.572	 -0.360	 -0.210
185.575	 -0.350	 -0.210
185.578	 -0.345	 -0.205
185.581	 -0.360	 -0.225
185.583	 -0.360	 -0.230
185.586	 -0.365	 -0.225
185.589	 -0.360	 -0.215
185.592	 -0.360	 -0.200
185.594	 -0.350	 -0.205
185.597	 -0.360	 -0.220
185.600	 -0.365	 -0.210
185.603	 -0.370	 -0.210
185.606	 -0.360	 -0.205
185.608	 -0.355	 -0.200
185.611	 -0.360	 -0.215
185.614	 -0.350	 -0.215
185.617	 -0.360	 -0.230
185.619	 -0.375	 -0.220
185.622	 -0.365	 -0.210
185.625	 -0.355	 -0.215
185.628	 -0.360	 -0.215
185.631	 -0.370	 -0.225
185.633	 -0.365	 -0.225
185.636	 -0.380	 -0.205
185.639	 -0.380	 -0.205
185.642	 -0.360	 -0.190
185.644	 -0.355	 -0.185
185.647	 -0.365	 -0.210
185.650	 -0.360	 -0.230
185.653	 -0.380	 -0.225
185.656	 -0.360	 -0.215
185.658	 -0.350	 -0.200
185.661	 -0.350	 -0.195
185.664	 -0.350	 -0.190
185.667	 -0.355	 -0.210
185.669	 -0.355	 -0.205
185.672	 -0.355	 -0.210
185.675	 -0.340	 -0.200
185.678	 -0.325	 -0.205
185.681	 -0.335	 -0.200
185.683	 -0.350	 -0.205
185.686	 -0.350	 -0.200
185.689	 -0.345	 -0.205
185.692	 -0.340	 -0.190
185.694	 -0.335	 -0.190
185.697	 -0.345	 -0.210
185.700	 -0.350	 -0.225
185.703	 -0.350	 -0.220
185.706	 -0.350	 -0.200
185.708	 -0.345	 -0.205
185.711	 -0.355	 -0.215
185.714	 -0.355	 -0.220
185.717	 -0.360	 -0.245
185.719	 -0.355	 -0.230
185.722	 -0.355	 -0.230
185.725	 -0.340	 -0.215
185.728	 -0.340	 -0.220
185.731	 -0.340	 -0.245
185.733	 -0.345	 -0.245
185.736	 -0.355	 -0.260
185.739	 -0.345	 -0.250
185.742	 -0.335	 -0.255
185.744	 -0.335	 -0.255
185.747	 -0.340	 -0.265
185.750	 -0.345	 -0.270
185.753	 -0.350	 -0.275
185.756	 -0.330	 -0.285
185.758	 -0.330	 -0.280
185.761	 -0.345	 -0.295
185.764	 -0.325	 -0.310
185.767	 -0.350	 -0.345
185.769	 -0.370	 -0.345
185.772	 -0.355	 -0.345
185.775	 -0.360	 -0.350
185.778	 -0.370	 -0.355
185.781	 -0.385	 -0.365
185.783	 -0.400	 -0.370
185.786	 -0.400	 -0.385
185.789	 -0.390	 -0.375
185.792	 -0.385	 -0.375
185.794	 -0.390	 -0.380
185.797	 -0.400	 -0.400
185.800	 -0.410	 -0.415
185.803	 -0.420	 -0.395
185.806	 -0.415	 -0.390
185.808	 -0.405	 -0.385
185.811	 -0.415	 -0.370
185.814	 -0.430	 -0.375
185.817	 -0.430	 -0.380
185.819	 -0.430	 -0.365
185.822	 -0.420	 -0.335
185.825	 -0.405	 -0.315
185.828	 -0.400	 -0.310
185.831	 -0.410	 -0.310
185.833	 -0.410	 -0.305
185.836	 -0.410	 -0.300
185.839	 -0.390	 -0.295
185.842	 -0.370	 -0.285
185.844	 -0.365	 -0.265
185.847	 -0.385	 -0.260
185.850	 -0.380	 -0.270
185.853	 -0.375	 -0.245
185.856	 -0.365	 -0.235
185.858	 -0.365	 -0.225
185.861	 -0.365	 -0.220
185.864	 -0.355	 -0.240
185.867	 -0.355	 -0.245
185.869	 -0.350	 -0.215
185.872	 -0.345	 -0.215
185.875	 -0.345	 -0.210
185.878	 -0.335	 -0.215
185.881	 -0.340	 -0.225
185.883	 -0.340	 -0.235
185.886	 -0.345	 -0.225
185.889	 -0.335	 -0.220
185.892	 -0.335	 -0.210
185.894	 -0.335	 -0.205
185.897	 -0.330	 -0.210
185.900	 -0.340	 -0.215
185.903	 -0.340	 -0.210
185.906	 -0.340	 -0.205
185.908	 -0.330	 -0.195
185.911	 -0.320	 -0.210
185.914	 -0.320	 -0.210
185.917	 -0.335	 -0.220
185.919	 -0.350	 -0.210
185.922	 -0.340	 -0.200
185.925	 -0.330	 -0.195
185.928	 -0.335	 -0.215
185.931	 -0.325	 -0.210
185.933	 -0.325	 -0.215
185.936	 -0.345	 -0.210
185.939	 -0.340	 -0.205
185.942	 -0.320	 -0.210
185.944	 -0.325	 -0.215
185.947	 -0.325	 -0.215
185.950	 -0.335	 -0.230
185.953	 -0.345	 -0.210
185.956	 -0.335	 -0.200
185.958	 -0.325	 -0.205
185.961	 -0.325	 -0.200
185.964	 -0.325	 -0.205
185.967	 -0.335	 -0.225
185.969	 -0.340	 -0.215
185.972	 -0.340	 -0.215
185.975	 -0.330	 -0.200
185.978	 -0.330	 -0.200
185.981	 -0.330	 -0.210
185.983	 -0.340	 -0.220
185.986	 -0.345	 -0.230
185.989	 -0.345	 -0.225
185.992	 -0.320	 -0.205
185.994	 -0.335	 -0.210
185.997	 -0.335	 -0.210
186.000	 -0.340	 -0.230
186.003	 -0.340	 -0.220
186.006	 -0.340	 -0.210
186.008	 -0.330	 -0.205
186.011	 -0.330	 -0.210
186.014	 -0.345	 -0.215
186.017	 -0.355	 -0.235
186.019	 -0.350	 -0.215
186.022	 -0.345	 -0.205
186.025	 -0.340	 -0.205
186.028	 -0.325	 -0.210
186.031	 -0.330	 -0.220
186.033	 -0.330	 -0.240
186.036	 -0.340	 -0.225
186.039	 -0.335	 -0.210
186.042	 -0.335	 -0.195
186.044	 -0.335	 -0.195
186.047	 -0.330	 -0.210
186.050	 -0.340	 -0.230
186.053	 -0.360	 -0.220
186.056	 -0.340	 -0.210
186.058	 -0.340	 -0.210
186.061	 -0.335	 -0.200
186.064	 -0.340	 -0.215
186.067	 -0.345	 -0.220
186.069	 -0.350	 -0.210
186.072	 -0.350	 -0.215
186.075	 -0.335	 -0.205
186.078	 -0.330	 -0.210
186.081	 -0.325	 -0.220
186.083	 -0.340	 -0.225
186.086	 -0.360	 -0.215
186.089	 -0.345	 -0.210
186.092	 -0.330	 -0.185
186.094	 -0.325	 -0.200
186.097	 -0.325	 -0.195
186.100	 -0.350	 -0.215
186.103	 -0.350	 -0.210
186.106	 -0.335	 -0.210
186.108	 -0.325	 -0.200
186.111	 -0.340	 -0.205
186.114	 -0.325	 -0.225
186.117	 -0.335	 -0.225
186.119	 -0.335	 -0.210
186.122	 -0.340	 -0.200
186.125	 -0.335	 -0.205
186.128	 -0.325	 -0.210
186.131	 -0.325	 -0.215
186.133	 -0.335	 -0.215
186.136	 -0.340	 -0.205
186.139	 -0.335	 -0.200
186.142	 -0.325	 -0.190
186.144	 -0.325	 -0.190
186.147	 -0.335	 -0.205
186.150	 -0.335	 -0.210
186.153	 -0.350	 -0.200
186.156	 -0.340	 -0.195
186.158	 -0.330	 -0.190
186.161	 -0.330	 -0.190
186.164	 -0.320	 -0.205
186.167	 -0.335	 -0.200
186.169	 -0.345	 -0.190
186.172	 -0.325	 -0.200
186.175	 -0.315	 -0.185
186.178	 -0.325	 -0.185
186.181	 -0.330	 -0.200
186.183	 -0.335	 -0.195
186.186	 -0.335	 -0.190
186.189	 -0.330	 -0.180
186.192	 -0.315	 -0.175
186.194	 -0.310	 -0.180
186.197	 -0.315	 -0.190
186.200	 -0.330	 -0.200
186.203	 -0.335	 -0.185
186.206	 -0.335	 -0.175
186.208	 -0.320	 -0.165
186.211	 -0.330	 -0.180
186.214	 -0.340	 -0.180
186.217	 -0.330	 -0.200
186.219	 -0.330	 -0.195
186.222	 -0.310	 -0.185
186.225	 -0.315	 -0.170
186.228	 -0.320	 -0.185
186.231	 -0.320	 -0.175
186.233	 -0.330	 -0.180
186.236	 -0.325	 -0.175
186.239	 -0.310	 -0.175
186.242	 -0.305	 -0.180
186.244	 -0.285	 -0.180
186.247	 -0.275	 -0.190
186.250	 -0.280	 -0.195
186.253	 -0.290	 -0.175
186.256	 -0.265	 -0.165
186.258	 -0.250	 -0.150
186.261	 -0.250	 -0.155
186.264	 -0.255	 -0.155
186.267	 -0.255	 -0.165
186.269	 -0.255	 -0.160
186.272	 -0.255	 -0.140
186.275	 -0.240	 -0.125
186.278	 -0.235	 -0.140
186.281	 -0.225	 -0.140
186.283	 -0.240	 -0.150
186.286	 -0.250	 -0.145
186.289	 -0.225	 -0.130
186.292	 -0.215	 -0.125
186.294	 -0.215	 -0.125
186.297	 -0.230	 -0.130
186.300	 -0.235	 -0.140
186.303	 -0.235	 -0.135
186.306	 -0.235	 -0.120
186.308	 -0.235	 -0.105
186.311	 -0.230	 -0.110
186.314	 -0.235	 -0.105
186.317	 -0.235	 -0.135
186.319	 -0.240	 -0.130
186.322	 -0.235	 -0.115
186.325	 -0.235	 -0.130
186.328	 -0.215	 -0.130
186.331	 -0.215	 -0.145
186.333	 -0.210	 -0.150
186.336	 -0.235	 -0.150
186.339	 -0.245	 -0.140
186.342	 -0.265	 -0.140
186.344	 -0.265	 -0.150
186.347	 -0.290	 -0.150
186.350	 -0.315	 -0.165
186.353	 -0.325	 -0.160
186.356	 -0.315	 -0.160
186.358	 -0.320	 -0.150
186.361	 -0.320	 -0.155
186.364	 -0.325	 -0.175
186.367	 -0.335	 -0.185
186.369	 -0.325	 -0.175
186.372	 -0.325	 -0.165
186.375	 -0.325	 -0.160
186.378	 -0.315	 -0.155
186.381	 -0.315	 -0.160
186.383	 -0.330	 -0.170
186.386	 -0.330	 -0.170
186.389	 -0.330	 -0.160
186.392	 -0.330	 -0.160
186.394	 -0.325	 -0.160
186.397	 -0.335	 -0.165
186.400	 -0.335	 -0.165
186.403	 -0.330	 -0.165
186.406	 -0.315	 -0.160
186.408	 -0.310	 -0.150
186.411	 -0.310	 -0.150
186.414	 -0.310	 -0.165
186.417	 -0.315	 -0.180
186.419	 -0.330	 -0.180
186.422	 -0.335	 -0.210
186.425	 -0.330	 -0.200
186.428	 -0.350	 -0.225
186.431	 -0.385	 -0.255
186.433	 -0.430	 -0.280
186.436	 -0.445	 -0.290
186.439	 -0.455	 -0.280
186.442	 -0.465	 -0.220
186.444	 -0.490	 -0.110
186.447	 -0.515	 -0.020
186.450	 -0.490	  0.075
186.453	 -0.430	  0.165
186.456	 -0.275	  0.255
186.458	 -0.155	  0.350
186.461	  0.010	  0.480
186.464	  0.240	  0.580
186.467	  0.500	  0.635
186.469	  0.725	  0.535
186.472	  0.880	  0.270
186.475	  0.910	 -0.035
186.478	  0.730	 -0.240
186.481	  0.390	 -0.285
186.483	 -0.005	 -0.245
186.486	 -0.305	 -0.220
186.489	 -0.430	 -0.205
186.492	 -0.455	 -0.195
186.494	 -0.435	 -0.190
186.497	 -0.395	 -0.190
186.500	 -0.365	 -0.190
186.503	 -0.360	 -0.190
186.506	 -0.355	 -0.195
186.508	 -0.350	 -0.185
186.511	 -0.350	 -0.190
186.514	 -0.355	 -0.205
186.517	 -0.365	 -0.210
186.519	 -0.380	 -0.200
186.522	 -0.370	 -0.185
186.525	 -0.365	 -0.180
186.528	 -0.365	 -0.185
186.531	 -0.370	 -0.190
186.533	 -0.385	 -0.200
186.536	 -0.380	 -0.205
186.539	 -0.375	 -0.190
186.542	 -0.370	 -0.185
186.544	 -0.365	 -0.175
186.547	 -0.370	 -0.180
186.550	 -0.370	 -0.195
186.553	 -0.375	 -0.195
186.556	 -0.370	 -0.190
186.558	 -0.365	 -0.170
186.561	 -0.350	 -0.180
186.564	 -0.360	 -0.190
186.567	 -0.360	 -0.190
186.569	 -0.375	 -0.180
186.572	 -0.365	 -0.175
186.575	 -0.355	 -0.175
186.578	 -0.355	 -0.185
186.581	 -0.375	 -0.185
186.583	 -0.375	 -0.195
186.586	 -0.375	 -0.190
186.589	 -0.360	 -0.185
186.592	 -0.350	 -0.180
186.594	 -0.355	 -0.175
186.597	 -0.355	 -0.185
186.600	 -0.365	 -0.190
186.603	 -0.375	 -0.200
186.606	 -0.365	 -0.180
186.608	 -0.370	 -0.180
186.611	 -0.370	 -0.180
186.614	 -0.370	 -0.185
186.617	 -0.380	 -0.195
186.619	 -0.375	 -0.185
186.622	 -0.365	 -0.180
186.625	 -0.360	 -0.185
186.628	 -0.350	 -0.180
186.631	 -0.360	 -0.200
186.633	 -0.365	 -0.205
186.636	 -0.370	 -0.205
186.639	 -0.350	 -0.195
186.642	 -0.355	 -0.185
186.644	 -0.350	 -0.195
186.647	 -0.360	 -0.210
186.650	 -0.365	 -0.220
186.653	 -0.370	 -0.215
186.656	 -0.360	 -0.215
186.658	 -0.360	 -0.200
186.661	 -0.350	 -0.205
186.664	 -0.355	 -0.220
186.667	 -0.365	 -0.220
186.669	 -0.380	 -0.235
186.672	 -0.380	 -0.240
186.675	 -0.375	 -0.230
186.678	 -0.370	 -0.245
186.681	 -0.370	 -0.240
186.683	 -0.375	 -0.255
186.686	 -0.370	 -0.245
186.689	 -0.365	 -0.250
186.692	 -0.355	 -0.240
186.694	 -0.350	 -0.270
186.697	 -0.360	 -0.275
186.700	 -0.370	 -0.290
186.703	 -0.375	 -0.280
186.706	 -0.375	 -0.290
186.708	 -0.370	 -0.285
186.711	 -0.370	 -0.290
186.714	 -0.395	 -0.305
186.717	 -0.400	 -0.315
186.719	 -0.410	 -0.310
186.722	 -0.400	 -0.330
186.725	 -0.410	 -0.320
186.728	 -0.405	 -0.330
186.731	 -0.410	 -0.340
186.733	 -0.420	 -0.345
186.736	 -0.430	 -0.355
186.739	 -0.420	 -0.335
186.742	 -0.410	 -0.335
186.744	 -0.400	 -0.340
186.747	 -0.410	 -0.335
186.750	 -0.405	 -0.330
186.753	 -0.400	 -0.310
186.756	 -0.400	 -0.295
186.758	 -0.380	 -0.280
186.761	 -0.375	 -0.260
186.764	 -0.375	 -0.265
186.767	 -0.360	 -0.265
186.769	 -0.355	 -0.240
186.772	 -0.340	 -0.220
186.775	 -0.315	 -0.185
186.778	 -0.305	 -0.185
186.781	 -0.300	 -0.175
186.783	 -0.280	 -0.175
186.786	 -0.285	 -0.170
186.789	 -0.270	 -0.160
186.792	 -0.275	 -0.130
186.794	 -0.265	 -0.125
186.797	 -0.255	 -0.130
186.800	 -0.260	 -0.145
186.803	 -0.260	 -0.145
186.806	 -0.250	 -0.120
186.808	 -0.245	 -0.120
186.811	 -0.235	 -0.115
186.814	 -0.240	 -0.115
186.817	 -0.250	 -0.130
186.819	 -0.245	 -0.120
186.822	 -0.245	 -0.100
186.825	 -0.255	 -0.105
186.828	 -0.235	 -0.105
186.831	 -0.250	 -0.120
186.833	 -0.250	 -0.135
186.836	 -0.255	 -0.120
186.839	 -0.245	 -0.120
186.842	 -0.240	 -0.105
186.844	 -0.235	 -0.110
186.847	 -0.235	 -0.115
186.850	 -0.245	 -0.120
186.853	 -0.255	 -0.120
186.856	 -0.245	 -0.115
186.858	 -0.255	 -0.110
186.861	 -0.235	 -0.120
186.864	 -0.245	 -0.130
186.867	 -0.260	 -0.135
186.869	 -0.265	 -0.130
186.872	 -0.255	 -0.120
186.875	 -0.255	 -0.100
186.878	 -0.255	 -0.120
186.881	 -0.250	 -0.135
186.883	 -0.270	 -0.150
186.886	 -0.265	 -0.140
186.889	 -0.265	 -0.140
186.892	 -0.255	 -0.120
186.894	 -0.255	 -0.120
186.897	 -0.265	 -0.150
186.900	 -0.265	 -0.155
186.903	 -0.260	 -0.150
186.906	 -0.260	 -0.150
186.908	 -0.255	 -0.140
186.911	 -0.265	 -0.135
186.914	 -0.275	 -0.150
186.917	 -0.290	 -0.160
186.919	 -0.285	 -0.160
186.922	 -0.280	 -0.160
186.925	 -0.275	 -0.160
186.928	 -0.270	 -0.150
186.931	 -0.285	 -0.155
186.933	 -0.285	 -0.160
186.936	 -0.290	 -0.160
186.939	 -0.290	 -0.155
186.942	 -0.285	 -0.145
186.944	 -0.280	 -0.150
186.947	 -0.280	 -0.165
186.950	 -0.295	 -0.170
186.953	 -0.305	 -0.180
186.956	 -0.290	 -0.165
186.958	 -0.285	 -0.165
186.961	 -0.280	 -0.165
186.964	 -0.300	 -0.165
186.967	 -0.305	 -0.170
186.969	 -0.300	 -0.170
186.972	 -0.300	 -0.160
186.975	 -0.285	 -0.160
186.978	 -0.285	 -0.170
186.981	 -0.295	 -0.175
186.983	 -0.300	 -0.170
186.986	 -0.310	 -0.175
186.989	 -0.305	 -0.160
186.992	 -0.310	 -0.155
186.994	 -0.305	 -0.170
186.997	 -0.315	 -0.180
187.000	 -0.315	 -0.180
187.003	 -0.320	 -0.175
187.006	 -0.310	 -0.155
187.008	 -0.300	 -0.170
187.011	 -0.310	 -0.160
187.014	 -0.315	 -0.170
187.017	 -0.310	 -0.180
187.019	 -0.330	 -0.170
187.022	 -0.310	 -0.170
187.025	 -0.310	 -0.165
187.028	 -0.305	 -0.160
187.031	 -0.315	 -0.180
187.033	 -0.315	 -0.180
187.036	 -0.320	 -0.165
187.039	 -0.310	 -0.175
187.042	 -0.305	 -0.165
187.044	 -0.290	 -0.160
187.047	 -0.295	 -0.180
187.050	 -0.295	 -0.180
187.053	 -0.300	 -0.160
187.056	 -0.310	 -0.160
187.058	 -0.300	 -0.150
187.061	 -0.295	 -0.150
187.064	 -0.300	 -0.180
187.067	 -0.305	 -0.175
187.069	 -0.320	 -0.185
187.072	 -0.310	 -0.170
187.075	 -0.305	 -0.165
187.078	 -0.300	 -0.165
187.081	 -0.305	 -0.165
187.083	 -0.315	 -0.180
187.086	 -0.305	 -0.180
187.089	 -0.285	 -0.170
187.092	 -0.275	 -0.165
187.094	 -0.260	 -0.170
187.097	 -0.260	 -0.170
187.100	 -0.255	 -0.175
187.103	 -0.255	 -0.155
187.106	 -0.245	 -0.160
187.108	 -0.245	 -0.130
187.111	 -0.240	 -0.140
187.114	 -0.230	 -0.145
187.117	 -0.220	 -0.150
187.119	 -0.235	 -0.135
187.122	 -0.220	 -0.120
187.125	 -0.205	 -0.120
187.128	 -0.180	 -0.115
187.131	 -0.185	 -0.125
187.133	 -0.205	 -0.140
187.136	 -0.205	 -0.145
187.139	 -0.205	 -0.130
187.142	 -0.210	 -0.115
187.144	 -0.210	 -0.115
187.147	 -0.215	 -0.120
187.150	 -0.230	 -0.125
187.153	 -0.230	 -0.115
187.156	 -0.215	 -0.095
187.158	 -0.200	 -0.090
187.161	 -0.210	 -0.110
187.164	 -0.230	 -0.125
187.167	 -0.245	 -0.130
187.169	 -0.245	 -0.125
187.172	 -0.220	 -0.130
187.175	 -0.200	 -0.130
187.178	 -0.190	 -0.135
187.181	 -0.210	 -0.135
187.183	 -0.235	 -0.135
187.186	 -0.260	 -0.155
187.189	 -0.270	 -0.140
187.192	 -0.265	 -0.155
187.194	 -0.290	 -0.155
187.197	 -0.305	 -0.160
187.200	 -0.315	 -0.155
187.203	 -0.330	 -0.170
187.206	 -0.325	 -0.155
187.208	 -0.335	 -0.160
187.211	 -0.315	 -0.170
187.214	 -0.315	 -0.175
187.217	 -0.335	 -0.180
187.219	 -0.340	 -0.180
187.222	 -0.335	 -0.170
187.225	 -0.325	 -0.160
187.228	 -0.320	 -0.170
187.231	 -0.320	 -0.170
187.233	 -0.340	 -0.185
187.236	 -0.350	 -0.190
187.239	 -0.330	 -0.175
187.242	 -0.335	 -0.170
187.244	 -0.320	 -0.160
187.247	 -0.345	 -0.190
187.250	 -0.350	 -0.190
187.253	 -0.355	 -0.180
187.256	 -0.340	 -0.175
187.258	 -0.345	 -0.185
187.261	 -0.335	 -0.200
187.264	 -0.345	 -0.235
187.267	 -0.365	 -0.265
187.269	 -0.410	 -0.285
187.272	 -0.435	 -0.310
187.275	 -0.460	 -0.320
187.278	 -0.480	 -0.300
187.281	 -0.510	 -0.225
187.283	 -0.560	 -0.120
187.286	 -0.580	 -0.005
187.289	 -0.505	  0.110
187.292	 -0.385	  0.170
187.294	 -0.275	  0.235
187.297	 -0.175	  0.290
187.300	 -0.075	  0.390
187.303	  0.065	  0.510
187.306	  0.275	  0.615
187.308	  0.495	  0.715
187.311	  0.705	  0.740
187.314	  0.860	  0.640
187.317	  0.940	  0.380
187.319	  0.940	  0.040
187.322	  0.795	 -0.195
187.325	  0.505	 -0.265
187.328	  0.140	 -0.250
187.331	 -0.210	 -0.210
187.333	 -0.415	 -0.240
187.336	 -0.490	 -0.230
187.339	 -0.480	 -0.210
187.342	 -0.440	 -0.200
187.344	 -0.420	 -0.200
187.347	 -0.380	 -0.225
187.350	 -0.390	 -0.235
187.353	 -0.405	 -0.235
187.356	 -0.385	 -0.230
187.358	 -0.375	 -0.215
187.361	 -0.380	 -0.210
187.364	 -0.385	 -0.220
187.367	 -0.395	 -0.240
187.369	 -0.410	 -0.225
187.372	 -0.395	 -0.225
187.375	 -0.400	 -0.230
187.378	 -0.395	 -0.220
187.381	 -0.390	 -0.230
187.383	 -0.390	 -0.225
187.386	 -0.395	 -0.235
187.389	 -0.390	 -0.210
187.392	 -0.380	 -0.200
187.394	 -0.395	 -0.215
187.397	 -0.395	 -0.225
187.400	 -0.390	 -0.240
187.403	 -0.405	 -0.225
187.406	 -0.390	 -0.220
187.408	 -0.390	 -0.210
187.411	 -0.390	 -0.215
187.414	 -0.390	 -0.235
187.417	 -0.400	 -0.240
187.419	 -0.400	 -0.240
187.422	 -0.395	 -0.220
187.425	 -0.395	 -0.210
187.428	 -0.385	 -0.205
187.431	 -0.390	 -0.220
187.433	 -0.405	 -0.225
187.436	 -0.405	 -0.230
187.439	 -0.405	 -0.220
187.442	 -0.390	 -0.215
187.444	 -0.390	 -0.225
187.447	 -0.390	 -0.230
187.450	 -0.400	 -0.235
187.453	 -0.390	 -0.220
187.456	 -0.400	 -0.220
187.458	 -0.385	 -0.210
187.461	 -0.375	 -0.210
187.464	 -0.380	 -0.250
187.467	 -0.390	 -0.235
187.469	 -0.395	 -0.240
187.472	 -0.395	 -0.240
187.475	 -0.390	 -0.230
187.478	 -0.380	 -0.225
187.481	 -0.380	 -0.235
187.483	 -0.395	 -0.250
187.486	 -0.390	 -0.245
187.489	 -0.385	 -0.245
187.492	 -0.380	 -0.245
187.494	 -0.380	 -0.245
187.497	 -0.380	 -0.255
187.500	 -0.400	 -0.265
187.503	 -0.405	 -0.275
187.506	 -0.400	 -0.265
187.508	 -0.390	 -0.275
187.511	 -0.395	 -0.275
187.514	 -0.390	 -0.285
187.517	 -0.395	 -0.295
187.519	 -0.395	 -0.305
187.522	 -0.385	 -0.300
187.525	 -0.385	 -0.300
187.528	 -0.385	 -0.305
187.531	 -0.390	 -0.310
187.533	 -0.400	 -0.325
187.536	 -0.400	 -0.335
187.539	 -0.395	 -0.330
187.542	 -0.375	 -0.325
187.544	 -0.385	 -0.335
187.547	 -0.390	 -0.345
187.550	 -0.405	 -0.355
187.553	 -0.405	 -0.370
187.556	 -0.395	 -0.360
187.558	 -0.395	 -0.355
187.561	 -0.395	 -0.360
187.564	 -0.390	 -0.360
187.567	 -0.405	 -0.370
187.569	 -0.420	 -0.375
187.572	 -0.405	 -0.365
187.575	 -0.415	 -0.350
187.578	 -0.410	 -0.355
187.581	 -0.400	 -0.355
187.583	 -0.405	 -0.355
187.586	 -0.415	 -0.340
187.589	 -0.420	 -0.315
187.592	 -0.400	 -0.300
187.594	 -0.390	 -0.295
187.597	 -0.390	 -0.285
187.600	 -0.390	 -0.285
187.603	 -0.370	 -0.260
187.606	 -0.365	 -0.240
187.608	 -0.340	 -0.230
187.611	 -0.335	 -0.210
187.614	 -0.320	 -0.220
187.617	 -0.320	 -0.225
187.619	 -0.325	 -0.205
187.622	 -0.305	 -0.195
187.625	 -0.295	 -0.195
187.628	 -0.285	 -0.190
187.631	 -0.295	 -0.185
187.633	 -0.305	 -0.200
187.636	 -0.310	 -0.190
187.639	 -0.305	 -0.185
187.642	 -0.290	 -0.170
187.644	 -0.295	 -0.170
187.647	 -0.300	 -0.195
187.650	 -0.300	 -0.190
187.653	 -0.315	 -0.190
187.656	 -0.295	 -0.180
187.658	 -0.285	 -0.185
187.661	 -0.290	 -0.180
187.664	 -0.295	 -0.180
187.667	 -0.300	 -0.190
187.669	 -0.305	 -0.190
187.672	 -0.305	 -0.185
187.675	 -0.285	 -0.190
187.678	 -0.275	 -0.180
187.681	 -0.280	 -0.190
187.683	 -0.300	 -0.185
187.686	 -0.310	 -0.190
187.689	 -0.295	 -0.195
187.692	 -0.290	 -0.180
187.694	 -0.295	 -0.190
187.697	 -0.295	 -0.195
187.700	 -0.300	 -0.205
187.703	 -0.315	 -0.205
187.706	 -0.305	 -0.195
187.708	 -0.310	 -0.195
187.711	 -0.300	 -0.195
187.714	 -0.310	 -0.200
187.717	 -0.320	 -0.210
187.719	 -0.330	 -0.210
187.722	 -0.320	 -0.200
187.725	 -0.310	 -0.185
187.728	 -0.315	 -0.195
187.731	 -0.320	 -0.215
187.733	 -0.325	 -0.225
187.736	 -0.330	 -0.230
187.739	 -0.330	 -0.220
187.742	 -0.330	 -0.215
187.744	 -0.325	 -0.210
187.747	 -0.335	 -0.220
187.750	 -0.335	 -0.220
187.753	 -0.340	 -0.215
187.756	 -0.345	 -0.220
187.758	 -0.330	 -0.215
187.761	 -0.325	 -0.215
187.764	 -0.335	 -0.225
187.767	 -0.350	 -0.225
187.769	 -0.360	 -0.225
187.772	 -0.355	 -0.220
187.775	 -0.360	 -0.225
187.778	 -0.370	 -0.220
187.781	 -0.365	 -0.235
187.783	 -0.365	 -0.240
187.786	 -0.370	 -0.230
187.789	 -0.365	 -0.220
187.792	 -0.365	 -0.210
187.794	 -0.355	 -0.225
187.797	 -0.350	 -0.230
187.800	 -0.355	 -0.230
187.803	 -0.360	 -0.235
187.806	 -0.350	 -0.225
187.808	 -0.345	 -0.215
187.811	 -0.335	 -0.230
187.814	 -0.345	 -0.225
187.817	 -0.350	 -0.250
187.819	 -0.370	 -0.235
187.822	 -0.365	 -0.220
187.825	 -0.345	 -0.210
187.828	 -0.340	 -0.205
187.831	 -0.350	 -0.230
187.833	 -0.355	 -0.235
187.836	 -0.365	 -0.225
187.839	 -0.365	 -0.225
187.842	 -0.365	 -0.215
187.844	 -0.365	 -0.210
187.847	 -0.350	 -0.215
187.850	 -0.360	 -0.225
187.853	 -0.360	 -0.220
187.856	 -0.350	 -0.210
187.858	 -0.345	 -0.215
187.861	 -0.350	 -0.220
187.864	 -0.360	 -0.215
187.867	 -0.360	 -0.215
187.869	 -0.360	 -0.220
187.872	 -0.350	 -0.225
187.875	 -0.355	 -0.200
187.878	 -0.350	 -0.215
187.881	 -0.355	 -0.215
187.883	 -0.360	 -0.215
187.886	 -0.360	 -0.210
187.889	 -0.345	 -0.200
187.892	 -0.330	 -0.205
187.894	 -0.330	 -0.200
187.897	 -0.340	 -0.220
187.900	 -0.350	 -0.225
187.903	 -0.365	 -0.215
187.906	 -0.350	 -0.190
187.908	 -0.335	 -0.195
187.911	 -0.325	 -0.205
187.914	 -0.325	 -0.210
187.917	 -0.325	 -0.220
187.919	 -0.315	 -0.215
187.922	 -0.290	 -0.220
187.925	 -0.280	 -0.210
187.928	 -0.270	 -0.205
187.931	 -0.280	 -0.200
187.933	 -0.275	 -0.210
187.936	 -0.275	 -0.205
187.939	 -0.260	 -0.195
187.942	 -0.255	 -0.180
187.944	 -0.230	 -0.180
187.947	 -0.235	 -0.190
187.950	 -0.240	 -0.190
187.953	 -0.240	 -0.195
187.956	 -0.245	 -0.175
187.958	 -0.235	 -0.175
187.961	 -0.240	 -0.185
187.964	 -0.250	 -0.185
187.967	 -0.250	 -0.175
187.969	 -0.280	 -0.175
187.972	 -0.265	 -0.155
187.975	 -0.265	 -0.155
187.978	 -0.265	 -0.170
187.981	 -0.250	 -0.185
187.983	 -0.275	 -0.175
187.986	 -0.280	 -0.180
187.989	 -0.285	 -0.165
187.992	 -0.275	 -0.165
187.994	 -0.255	 -0.175
187.997	 -0.235	 -0.200
188.000	 -0.235	 -0.205
188.003	 -0.265	 -0.200
188.006	 -0.280	 -0.195
188.008	 -0.295	 -0.190
188.011	 -0.300	 -0.195
188.014	 -0.320	 -0.220
188.017	 -0.345	 -0.220
188.019	 -0.360	 -0.220
188.022	 -0.360	 -0.230
188.025	 -0.370	 -0.210
188.028	 -0.355	 -0.215
188.031	 -0.365	 -0.220
188.033	 -0.375	 -0.235
188.036	 -0.385	 -0.235
188.039	 -0.370	 -0.230
188.042	 -0.360	 -0.225
188.044	 -0.370	 -0.225
188.047	 -0.380	 -0.225
188.050	 -0.390	 -0.240
188.053	 -0.395	 -0.230
188.056	 -0.390	 -0.220
188.058	 -0.380	 -0.210
188.061	 -0.375	 -0.230
188.064	 -0.380	 -0.245
188.067	 -0.390	 -0.250
188.069	 -0.400	 -0.245
188.072	 -0.395	 -0.240
188.075	 -0.390	 -0.240
188.078	 -0.385	 -0.255
188.081	 -0.385	 -0.295
188.083	 -0.410	 -0.335
188.086	 -0.440	 -0.345
188.089	 -0.475	 -0.360
188.092	 -0.500	 -0.380
188.094	 -0.510	 -0.390
188.097	 -0.540	 -0.370
188.100	 -0.605	 -0.320
188.103	 -0.645	 -0.235
188.106	 -0.635	 -0.135
188.108	 -0.565	 -0.065
188.111	 -0.490	  0.005
188.114	 -0.390	  0.060
188.117	 -0.310	  0.145
188.119	 -0.195	  0.250
188.122	 -0.010	  0.340
188.125	  0.245	  0.440
188.128	  0.500	  0.490
188.131	  0.680	  0.400
188.133	  0.780	  0.150
188.136	  0.780	 -0.150
188.139	  0.650	 -0.305
188.142	  0.350	 -0.325
188.144	 -0.020	 -0.290
188.147	 -0.340	 -0.280
188.150	 -0.510	 -0.290
188.153	 -0.535	 -0.290
188.156	 -0.495	 -0.280
188.158	 -0.450	 -0.275
188.161	 -0.420	 -0.270
188.164	 -0.445	 -0.290
188.167	 -0.440	 -0.295
188.169	 -0.435	 -0.295
188.172	 -0.430	 -0.285
188.175	 -0.420	 -0.285
188.178	 -0.415	 -0.280
188.181	 -0.425	 -0.290
188.183	 -0.445	 -0.300
188.186	 -0.445	 -0.290
188.189	 -0.450	 -0.275
188.192	 -0.440	 -0.280
188.194	 -0.440	 -0.280
188.197	 -0.445	 -0.290
188.200	 -0.455	 -0.300
188.203	 -0.460	 -0.305
188.206	 -0.455	 -0.295
188.208	 -0.445	 -0.280
188.211	 -0.450	 -0.290
188.214	 -0.445	 -0.300
188.217	 -0.450	 -0.300
188.219	 -0.445	 -0.305
188.222	 -0.445	 -0.295
188.225	 -0.445	 -0.290
188.228	 -0.445	 -0.280
188.231	 -0.435	 -0.305
188.233	 -0.445	 -0.305
188.236	 -0.450	 -0.290
188.239	 -0.450	 -0.285
188.242	 -0.420	 -0.295
188.244	 -0.420	 -0.295
188.247	 -0.425	 -0.305
188.250	 -0.450	 -0.295
188.253	 -0.445	 -0.300
188.256	 -0.450	 -0.285
188.258	 -0.440	 -0.290
188.261	 -0.430	 -0.305
188.264	 -0.440	 -0.305
188.267	 -0.450	 -0.315
188.269	 -0.455	 -0.315
188.272	 -0.450	 -0.295
188.275	 -0.440	 -0.300
188.278	 -0.440	 -0.300
188.281	 -0.455	 -0.310
188.283	 -0.465	 -0.320
188.286	 -0.470	 -0.305
188.289	 -0.455	 -0.300
188.292	 -0.450	 -0.305
188.294	 -0.445	 -0.300
188.297	 -0.450	 -0.305
188.300	 -0.460	 -0.320
188.303	 -0.455	 -0.320
188.306	 -0.450	 -0.315
188.308	 -0.445	 -0.330
188.311	 -0.435	 -0.325
188.314	 -0.450	 -0.335
188.317	 -0.445	 -0.345
188.319	 -0.450	 -0.350
188.322	 -0.430	 -0.345
188.325	 -0.435	 -0.350
188.328	 -0.425	 -0.360
188.331	 -0.435	 -0.360
188.333	 -0.445	 -0.370
188.336	 -0.455	 -0.380
188.339	 -0.435	 -0.370
188.342	 -0.440	 -0.365
188.344	 -0.440	 -0.375
188.347	 -0.445	 -0.390
188.350	 -0.445	 -0.410
188.353	 -0.465	 -0.410
188.356	 -0.470	 -0.405
188.358	 -0.460	 -0.420
188.361	 -0.450	 -0.415
188.364	 -0.455	 -0.420
188.367	 -0.470	 -0.435
188.369	 -0.490	 -0.440
188.372	 -0.500	 -0.440
188.375	 -0.480	 -0.435
188.378	 -0.475	 -0.440
188.381	 -0.480	 -0.430
188.383	 -0.490	 -0.445
188.386	 -0.490	 -0.445
188.389	 -0.495	 -0.445
188.392	 -0.480	 -0.435
188.394	 -0.485	 -0.430
188.397	 -0.485	 -0.430
188.400	 -0.490	 -0.430
188.403	 -0.490	 -0.425
188.406	 -0.470	 -0.395
188.408	 -0.460	 -0.380
188.411	 -0.455	 -0.360
188.414	 -0.440	 -0.355
188.417	 -0.455	 -0.345
188.419	 -0.435	 -0.330
188.422	 -0.420	 -0.315
188.425	 -0.400	 -0.305
188.428	 -0.400	 -0.300
188.431	 -0.385	 -0.300
188.433	 -0.395	 -0.295
188.436	 -0.395	 -0.295
188.439	 -0.390	 -0.285
188.442	 -0.370	 -0.265
188.444	 -0.375	 -0.275
188.447	 -0.365	 -0.275
188.450	 -0.365	 -0.280
188.453	 -0.370	 -0.280
188.456	 -0.355	 -0.275
188.458	 -0.350	 -0.265
188.461	 -0.350	 -0.270
188.464	 -0.355	 -0.275
188.467	 -0.360	 -0.290
188.469	 -0.375	 -0.290
188.472	 -0.375	 -0.265
188.475	 -0.375	 -0.260
188.478	 -0.355	 -0.265
188.481	 -0.360	 -0.270
188.483	 -0.375	 -0.285
188.486	 -0.370	 -0.290
188.489	 -0.360	 -0.275
188.492	 -0.360	 -0.255
188.494	 -0.365	 -0.265
188.497	 -0.365	 -0.285
188.500	 -0.370	 -0.295
188.503	 -0.380	 -0.295
188.506	 -0.385	 -0.285
188.508	 -0.395	 -0.270
188.511	 -0.390	 -0.280
188.514	 -0.385	 -0.290
188.517	 -0.385	 -0.305
188.519	 -0.395	 -0.290
188.522	 -0.385	 -0.295
188.525	 -0.375	 -0.285
188.528	 -0.370	 -0.300
188.531	 -0.380	 -0.300
188.533	 -0.390	 -0.310
188.536	 -0.395	 -0.295
188.539	 -0.400	 -0.285
188.542	 -0.375	 -0.280
188.544	 -0.375	 -0.290
188.547	 -0.370	 -0.305
188.550	 -0.385	 -0.320
188.553	 -0.400	 -0.325
188.556	 -0.410	 -0.315
188.558	 -0.400	 -0.305
188.561	 -0.390	 -0.305
188.564	 -0.415	 -0.310
188.567	 -0.420	 -0.320
188.569	 -0.425	 -0.330
188.572	 -0.425	 -0.330
188.575	 -0.415	 -0.325
188.578	 -0.410	 -0.330
188.581	 -0.415	 -0.315
188.583	 -0.425	 -0.315
188.586	 -0.430	 -0.325
188.589	 -0.430	 -0.310
188.592	 -0.420	 -0.310
188.594	 -0.410	 -0.305
188.597	 -0.395	 -0.315
188.600	 -0.405	 -0.325
188.603	 -0.415	 -0.340
188.606	 -0.410	 -0.320
188.608	 -0.410	 -0.320
188.611	 -0.410	 -0.330
188.614	 -0.410	 -0.335
188.617	 -0.420	 -0.340
188.619	 -0.420	 -0.325
188.622	 -0.420	 -0.320
188.625	 -0.405	 -0.305
188.628	 -0.400	 -0.310
188.631	 -0.410	 -0.315
188.633	 -0.430	 -0.335
188.636	 -0.425	 -0.330
188.639	 -0.430	 -0.325
188.642	 -0.430	 -0.310
188.644	 -0.410	 -0.315
188.647	 -0.420	 -0.330
188.650	 -0.420	 -0.335
188.653	 -0.425	 -0.335
188.656	 -0.420	 -0.330
188.658	 -0.410	 -0.315
188.661	 -0.410	 -0.320
188.664	 -0.405	 -0.330
188.667	 -0.405	 -0.325
188.669	 -0.410	 -0.330
188.672	 -0.410	 -0.320
188.675	 -0.410	 -0.315
188.678	 -0.405	 -0.325
188.681	 -0.420	 -0.330
188.683	 -0.425	 -0.345
188.686	 -0.425	 -0.340
188.689	 -0.420	 -0.340
188.692	 -0.410	 -0.320
188.694	 -0.400	 -0.325
188.697	 -0.400	 -0.335
188.700	 -0.395	 -0.340
188.703	 -0.375	 -0.340
188.706	 -0.360	 -0.315
188.708	 -0.350	 -0.310
188.711	 -0.340	 -0.310
188.714	 -0.340	 -0.305
188.717	 -0.340	 -0.300
188.719	 -0.345	 -0.300
188.722	 -0.330	 -0.290
188.725	 -0.320	 -0.285
188.728	 -0.315	 -0.280
188.731	 -0.320	 -0.295
188.733	 -0.315	 -0.300
188.736	 -0.320	 -0.300
188.739	 -0.345	 -0.290
188.742	 -0.330	 -0.280
188.744	 -0.325	 -0.280
188.747	 -0.315	 -0.290
188.750	 -0.330	 -0.280
188.753	 -0.345	 -0.290
188.756	 -0.330	 -0.280
188.758	 -0.340	 -0.280
188.761	 -0.370	 -0.280
188.764	 -0.370	 -0.280
188.767	 -0.365	 -0.295
188.769	 -0.365	 -0.295
188.772	 -0.335	 -0.285
188.775	 -0.310	 -0.280
188.778	 -0.295	 -0.300
188.781	 -0.320	 -0.325
188.783	 -0.345	 -0.320
188.786	 -0.385	 -0.325
188.789	 -0.390	 -0.305
188.792	 -0.395	 -0.300
188.794	 -0.405	 -0.315
188.797	 -0.425	 -0.335
188.800	 -0.425	 -0.350
188.803	 -0.435	 -0.345
188.806	 -0.445	 -0.340
188.808	 -0.435	 -0.325
188.811	 -0.430	 -0.335
188.814	 -0.435	 -0.340
188.817	 -0.445	 -0.345
188.819	 -0.450	 -0.355
188.822	 -0.465	 -0.355
188.825	 -0.450	 -0.340
188.828	 -0.435	 -0.350
188.831	 -0.445	 -0.355
188.833	 -0.460	 -0.350
188.836	 -0.460	 -0.350
188.839	 -0.470	 -0.345
188.842	 -0.460	 -0.325
188.844	 -0.465	 -0.340
188.847	 -0.465	 -0.350
188.850	 -0.465	 -0.365
188.853	 -0.470	 -0.355
188.856	 -0.465	 -0.350
188.858	 -0.460	 -0.340
188.861	 -0.455	 -0.360
188.864	 -0.450	 -0.380
188.867	 -0.470	 -0.425
188.869	 -0.500	 -0.430
188.872	 -0.535	 -0.450
188.875	 -0.545	 -0.440
188.878	 -0.560	 -0.440
188.881	 -0.600	 -0.375
188.883	 -0.640	 -0.290
188.886	 -0.650	 -0.180
188.889	 -0.580	 -0.095
188.892	 -0.455	 -0.010
188.894	 -0.315	  0.070
188.897	 -0.140	  0.175
188.900	  0.100	  0.290
188.903	  0.355	  0.375
188.906	  0.610	  0.345
188.908	  0.765	  0.140
188.911	  0.800	 -0.175
188.914	  0.670	 -0.430
188.917	  0.370	 -0.515
188.919	 -0.005	 -0.495
188.922	 -0.310	 -0.435
188.925	 -0.480	 -0.395
188.928	 -0.560	 -0.400
188.931	 -0.590	 -0.395
188.933	 -0.580	 -0.385
188.936	 -0.545	 -0.380
188.939	 -0.510	 -0.385
188.942	 -0.485	 -0.360
188.944	 -0.495	 -0.380
188.947	 -0.495	 -0.375
188.950	 -0.495	 -0.370
188.953	 -0.500	 -0.370
188.956	 -0.490	 -0.375
188.958	 -0.480	 -0.375
188.961	 -0.485	 -0.370
188.964	 -0.490	 -0.380
188.967	 -0.505	 -0.390
188.969	 -0.515	 -0.380
188.972	 -0.510	 -0.365
188.975	 -0.500	 -0.360
188.978	 -0.500	 -0.365
188.981	 -0.495	 -0.370
188.983	 -0.505	 -0.380
188.986	 -0.515	 -0.380
188.989	 -0.505	 -0.360
188.992	 -0.490	 -0.350
188.994	 -0.495	 -0.345
188.997	 -0.490	 -0.365
189.000	 -0.505	 -0.370
189.003	 -0.515	 -0.370
189.006	 -0.510	 -0.355
189.008	 -0.485	 -0.355
189.011	 -0.490	 -0.360
189.014	 -0.490	 -0.355
189.017	 -0.490	 -0.370
189.019	 -0.500	 -0.355
189.022	 -0.505	 -0.350
189.025	 -0.490	 -0.340
189.028	 -0.480	 -0.340
189.031	 -0.500	 -0.350
189.033	 -0.500	 -0.355
189.036	 -0.510	 -0.355
189.039	 -0.500	 -0.335
189.042	 -0.490	 -0.340
189.044	 -0.490	 -0.350
189.047	 -0.490	 -0.355
189.050	 -0.500	 -0.360
189.053	 -0.500	 -0.365
189.056	 -0.505	 -0.355
189.058	 -0.495	 -0.340
189.061	 -0.495	 -0.350
189.064	 -0.490	 -0.350
189.067	 -0.485	 -0.360
189.069	 -0.495	 -0.370
189.072	 -0.490	 -0.350
189.075	 -0.480	 -0.345
189.078	 -0.475	 -0.350
189.081	 -0.475	 -0.360
189.083	 -0.480	 -0.370
189.086	 -0.490	 -0.365
189.089	 -0.490	 -0.360
189.092	 -0.485	 -0.355
189.094	 -0.480	 -0.350
189.097	 -0.485	 -0.365
189.100	 -0.485	 -0.375
189.103	 -0.495	 -0.380
189.106	 -0.500	 -0.390
189.108	 -0.475	 -0.375
189.111	 -0.475	 -0.385
189.114	 -0.485	 -0.400
189.117	 -0.495	 -0.405
189.119	 -0.495	 -0.415
189.122	 -0.485	 -0.410
189.125	 -0.485	 -0.400
189.128	 -0.485	 -0.420
189.131	 -0.490	 -0.425
189.133	 -0.495	 -0.440
189.136	 -0.510	 -0.445
189.139	 -0.490	 -0.430
189.142	 -0.480	 -0.415
189.144	 -0.475	 -0.430
189.147	 -0.475	 -0.440
189.150	 -0.485	 -0.455
189.153	 -0.500	 -0.470
189.156	 -0.510	 -0.465
189.158	 -0.505	 -0.460
189.161	 -0.510	 -0.480
189.164	 -0.510	 -0.490
189.167	 -0.515	 -0.495
189.169	 -0.530	 -0.485
189.172	 -0.525	 -0.475
189.175	 -0.520	 -0.465
189.178	 -0.520	 -0.480
189.181	 -0.525	 -0.475
189.183	 -0.535	 -0.480
189.186	 -0.550	 -0.460
189.189	 -0.535	 -0.435
189.192	 -0.510	 -0.410
189.194	 -0.495	 -0.400
189.197	 -0.490	 -0.395
189.200	 -0.495	 -0.395
189.203	 -0.485	 -0.380
189.206	 -0.455	 -0.360
189.208	 -0.435	 -0.330
189.211	 -0.430	 -0.335
189.214	 -0.420	 -0.325
189.217	 -0.410	 -0.315
189.219	 -0.410	 -0.310
189.222	 -0.385	 -0.305
189.225	 -0.370	 -0.290
189.228	 -0.355	 -0.280
189.231	 -0.355	 -0.275
189.233	 -0.355	 -0.285
189.236	 -0.365	 -0.285
189.239	 -0.355	 -0.255
189.242	 -0.345	 -0.255
189.244	 -0.335	 -0.260
189.247	 -0.340	 -0.270
189.250	 -0.350	 -0.270
189.253	 -0.355	 -0.280
189.256	 -0.350	 -0.250
189.258	 -0.340	 -0.250
189.261	 -0.340	 -0.250
189.264	 -0.340	 -0.260
189.267	 -0.355	 -0.275
189.269	 -0.355	 -0.270
189.272	 -0.355	 -0.265
189.275	 -0.350	 -0.245
189.278	 -0.340	 -0.245
189.281	 -0.345	 -0.260
189.283	 -0.355	 -0.265
189.286	 -0.350	 -0.265
189.289	 -0.345	 -0.270
189.292	 -0.350	 -0.255
189.294	 -0.350	 -0.250
189.297	 -0.345	 -0.265
189.300	 -0.340	 -0.265
189.303	 -0.350	 -0.270
189.306	 -0.335	 -0.250
189.308	 -0.340	 -0.250
189.311	 -0.340	 -0.250
189.314	 -0.345	 -0.270
189.317	 -0.340	 -0.275
189.319	 -0.350	 -0.280
189.322	 -0.350	 -0.265
189.325	 -0.335	 -0.255
189.328	 -0.340	 -0.260
189.331	 -0.350	 -0.260
189.333	 -0.360	 -0.285
189.336	 -0.370	 -0.285
189.339	 -0.360	 -0.270
189.342	 -0.350	 -0.260
189.344	 -0.350	 -0.265
189.347	 -0.350	 -0.270
189.350	 -0.365	 -0.285
189.353	 -0.370	 -0.280
189.356	 -0.365	 -0.275
189.358	 -0.360	 -0.270
189.361	 -0.355	 -0.270
189.364	 -0.365	 -0.275
189.367	 -0.370	 -0.285
189.369	 -0.380	 -0.285
189.372	 -0.375	 -0.270
189.375	 -0.350	 -0.265
189.378	 -0.360	 -0.280
189.381	 -0.365	 -0.270
189.383	 -0.370	 -0.290
189.386	 -0.375	 -0.285
189.389	 -0.365	 -0.280
189.392	 -0.365	 -0.260
189.394	 -0.365	 -0.260
189.397	 -0.365	 -0.280
189.400	 -0.375	 -0.285
189.403	 -0.375	 -0.285
189.406	 -0.375	 -0.270
189.408	 -0.370	 -0.260
189.411	 -0.375	 -0.260
189.414	 -0.385	 -0.260
189.417	 -0.390	 -0.270
189.419	 -0.385	 -0.280
189.422	 -0.375	 -0.265
189.425	 -0.370	 -0.255
189.428	 -0.360	 -0.255
189.431	 -0.370	 -0.265
189.433	 -0.365	 -0.275
189.436	 -0.375	 -0.260
189.439	 -0.360	 -0.250
189.442	 -0.355	 -0.235
189.444	 -0.350	 -0.255
189.447	 -0.370	 -0.260
189.450	 -0.365	 -0.270
189.453	 -0.380	 -0.260
189.456	 -0.375	 -0.255
189.458	 -0.365	 -0.250
189.461	 -0.360	 -0.250
189.464	 -0.355	 -0.255
189.467	 -0.360	 -0.270
189.469	 -0.365	 -0.265
189.472	 -0.355	 -0.255
189.475	 -0.335	 -0.255
189.478	 -0.330	 -0.265
189.481	 -0.340	 -0.270
189.483	 -0.350	 -0.275
189.486	 -0.355	 -0.255
189.489	 -0.355	 -0.255
189.492	 -0.345	 -0.240
189.494	 -0.340	 -0.255
189.497	 -0.345	 -0.250
189.500	 -0.345	 -0.270
189.503	 -0.355	 -0.265
189.506	 -0.345	 -0.260
189.508	 -0.325	 -0.245
189.511	 -0.315	 -0.260
189.514	 -0.300	 -0.255
189.517	 -0.295	 -0.270
189.519	 -0.300	 -0.270
189.522	 -0.290	 -0.250
189.525	 -0.275	 -0.230
189.528	 -0.265	 -0.240
189.531	 -0.275	 -0.235
189.533	 -0.260	 -0.230
189.536	 -0.260	 -0.230
189.539	 -0.250	 -0.220
189.542	 -0.235	 -0.205
189.544	 -0.235	 -0.215
189.547	 -0.240	 -0.215
189.550	 -0.240	 -0.220
189.553	 -0.260	 -0.215
189.556	 -0.255	 -0.200
189.558	 -0.250	 -0.195
189.561	 -0.240	 -0.185
189.564	 -0.270	 -0.195
189.567	 -0.270	 -0.205
189.569	 -0.270	 -0.200
189.572	 -0.270	 -0.195
189.575	 -0.275	 -0.185
189.578	 -0.265	 -0.185
189.581	 -0.265	 -0.200
189.583	 -0.240	 -0.220
189.586	 -0.250	 -0.230
189.589	 -0.260	 -0.215
189.592	 -0.270	 -0.210
189.594	 -0.275	 -0.210
189.597	 -0.295	 -0.225
189.600	 -0.320	 -0.235
189.603	 -0.340	 -0.240
189.606	 -0.340	 -0.230
189.608	 -0.345	 -0.225
189.611	 -0.340	 -0.225
189.614	 -0.350	 -0.240
189.617	 -0.355	 -0.245
189.619	 -0.360	 -0.245
189.622	 -0.360	 -0.235
189.625	 -0.360	 -0.215
189.628	 -0.350	 -0.230
189.631	 -0.365	 -0.235
189.633	 -0.365	 -0.235
189.636	 -0.370	 -0.250
189.639	 -0.370	 -0.240
189.642	 -0.350	 -0.220
189.644	 -0.350	 -0.230
189.647	 -0.355	 -0.245
189.650	 -0.360	 -0.245
189.653	 -0.365	 -0.250
189.656	 -0.380	 -0.235
189.658	 -0.360	 -0.230
189.661	 -0.360	 -0.235
189.664	 -0.365	 -0.245
189.667	 -0.380	 -0.250
189.669	 -0.385	 -0.245
189.672	 -0.375	 -0.240
189.675	 -0.365	 -0.235
189.678	 -0.370	 -0.250
189.681	 -0.370	 -0.285
189.683	 -0.375	 -0.320
189.686	 -0.390	 -0.345
189.689	 -0.425	 -0.355
189.692	 -0.455	 -0.375
189.694	 -0.470	 -0.380
189.697	 -0.485	 -0.340
189.700	 -0.540	 -0.245
189.703	 -0.565	 -0.085
189.706	 -0.535	  0.055
189.708	 -0.445	  0.185
189.711	 -0.290	  0.310
189.714	 -0.125	  0.435
189.717	  0.070	  0.570
189.719	  0.335	  0.680
189.722	  0.625	  0.700
189.725	  0.845	  0.535
189.728	  0.955	  0.170
189.731	  0.890	 -0.160
189.733	  0.645	 -0.310
189.736	  0.240	 -0.300
189.739	 -0.165	 -0.265
189.742	 -0.415	 -0.260
189.744	 -0.475	 -0.265
189.747	 -0.460	 -0.275
189.750	 -0.420	 -0.280
189.753	 -0.395	 -0.285
189.756	 -0.385	 -0.290
189.758	 -0.370	 -0.270
189.761	 -0.380	 -0.275
189.764	 -0.385	 -0.275
189.767	 -0.400	 -0.295
189.769	 -0.410	 -0.300
189.772	 -0.405	 -0.285
189.775	 -0.395	 -0.275
189.778	 -0.390	 -0.280
189.781	 -0.395	 -0.280
189.783	 -0.395	 -0.295
189.786	 -0.405	 -0.295
189.789	 -0.400	 -0.285
189.792	 -0.405	 -0.275
189.794	 -0.400	 -0.285
189.797	 -0.405	 -0.295
189.800	 -0.405	 -0.295
189.803	 -0.405	 -0.290
189.806	 -0.400	 -0.285
189.808	 -0.395	 -0.270
189.811	 -0.385	 -0.270
189.814	 -0.390	 -0.285
189.817	 -0.395	 -0.285
189.819	 -0.395	 -0.290
189.822	 -0.395	 -0.275
189.825	 -0.385	 -0.270
189.828	 -0.375	 -0.275
189.831	 -0.375	 -0.280
189.833	 -0.385	 -0.285
189.836	 -0.400	 -0.285
189.839	 -0.395	 -0.270
189.842	 -0.390	 -0.275
189.844	 -0.385	 -0.275
189.847	 -0.390	 -0.280
189.850	 -0.385	 -0.285
189.853	 -0.400	 -0.295
189.856	 -0.395	 -0.285
189.858	 -0.400	 -0.275
189.861	 -0.380	 -0.275
189.864	 -0.380	 -0.285
189.867	 -0.395	 -0.285
189.869	 -0.405	 -0.295
189.872	 -0.390	 -0.290
189.875	 -0.390	 -0.275
189.878	 -0.375	 -0.275
189.881	 -0.380	 -0.275
189.883	 -0.380	 -0.290
189.886	 -0.395	 -0.295
189.889	 -0.395	 -0.295
189.892	 -0.380	 -0.285
189.894	 -0.380	 -0.280
189.897	 -0.380	 -0.295
189.900	 -0.390	 -0.315
189.903	 -0.400	 -0.310
189.906	 -0.395	 -0.305
189.908	 -0.380	 -0.295
189.911	 -0.375	 -0.300
189.914	 -0.375	 -0.310
189.917	 -0.390	 -0.320
189.919	 -0.400	 -0.330
189.922	 -0.390	 -0.315
189.925	 -0.375	 -0.315
189.928	 -0.380	 -0.330
189.931	 -0.385	 -0.335
189.933	 -0.385	 -0.350
189.936	 -0.395	 -0.360
189.939	 -0.395	 -0.360
189.942	 -0.395	 -0.355
189.944	 -0.375	 -0.355
189.947	 -0.380	 -0.370
189.950	 -0.390	 -0.385
189.953	 -0.400	 -0.385
189.956	 -0.395	 -0.385
189.958	 -0.395	 -0.380
189.961	 -0.390	 -0.390
189.964	 -0.385	 -0.400
189.967	 -0.390	 -0.400
189.969	 -0.395	 -0.405
189.972	 -0.395	 -0.400
189.975	 -0.385	 -0.380
189.978	 -0.380	 -0.395
189.981	 -0.385	 -0.400
189.983	 -0.390	 -0.395
189.986	 -0.385	 -0.425
189.989	 -0.390	 -0.420
189.992	 -0.380	 -0.420
189.994	 -0.380	 -0.430
189.997	 -0.390	 -0.420
190.000	 -0.390	 -0.430
190.003	 -0.400	 -0.420
190.006	 -0.390	 -0.395
190.008	 -0.385	 -0.395
190.011	 -0.385	 -0.390
190.014	 -0.390	 -0.380
190.017	 -0.395	 -0.360
190.019	 -0.390	 -0.350
190.022	 -0.385	 -0.330
190.025	 -0.360	 -0.295
190.028	 -0.355	 -0.295
190.031	 -0.345	 -0.295
190.033	 -0.350	 -0.295
190.036	 -0.340	 -0.275
190.039	 -0.330	 -0.265
190.042	 -0.295	 -0.240
190.044	 -0.295	 -0.225
190.047	 -0.290	 -0.240
190.050	 -0.305	 -0.225
190.053	 -0.300	 -0.230
190.056	 -0.285	 -0.220
190.058	 -0.280	 -0.210
190.061	 -0.260	 -0.205
190.064	 -0.270	 -0.220
190.067	 -0.280	 -0.215
190.069	 -0.290	 -0.220
190.072	 -0.285	 -0.215
190.075	 -0.275	 -0.210
190.078	 -0.265	 -0.200
190.081	 -0.270	 -0.215
190.083	 -0.270	 -0.205
190.086	 -0.285	 -0.215
190.089	 -0.280	 -0.200
190.092	 -0.280	 -0.200
190.094	 -0.260	 -0.195
190.097	 -0.280	 -0.210
190.100	 -0.285	 -0.205
190.103	 -0.290	 -0.215
190.106	 -0.285	 -0.195
190.108	 -0.270	 -0.190
190.111	 -0.270	 -0.190
190.114	 -0.280	 -0.210
190.117	 -0.280	 -0.220
190.119	 -0.295	 -0.230
190.122	 -0.280	 -0.200
190.125	 -0.290	 -0.210
190.128	 -0.285	 -0.210
190.131	 -0.285	 -0.210
190.133	 -0.295	 -0.215
190.136	 -0.305	 -0.230
190.139	 -0.295	 -0.225
190.142	 -0.295	 -0.210
190.144	 -0.285	 -0.215
190.147	 -0.290	 -0.225
190.150	 -0.300	 -0.220
190.153	 -0.315	 -0.220
190.156	 -0.305	 -0.220
190.158	 -0.295	 -0.215
190.161	 -0.290	 -0.225
190.164	 -0.305	 -0.235
190.167	 -0.305	 -0.245
190.169	 -0.315	 -0.240
190.172	 -0.315	 -0.225
190.175	 -0.305	 -0.215
190.178	 -0.300	 -0.220
190.181	 -0.305	 -0.235
190.183	 -0.320	 -0.245
190.186	 -0.330	 -0.250
190.189	 -0.325	 -0.230
190.192	 -0.305	 -0.225
190.194	 -0.305	 -0.225
190.197	 -0.310	 -0.225
190.200	 -0.320	 -0.235
190.203	 -0.325	 -0.245
190.206	 -0.320	 -0.230
190.208	 -0.315	 -0.225
190.211	 -0.310	 -0.230
190.214	 -0.320	 -0.225
190.217	 -0.315	 -0.245
190.219	 -0.330	 -0.230
190.222	 -0.325	 -0.225
190.225	 -0.325	 -0.230
190.228	 -0.320	 -0.230
190.231	 -0.320	 -0.235
190.233	 -0.325	 -0.235
190.236	 -0.335	 -0.250
190.239	 -0.330	 -0.225
190.242	 -0.320	 -0.210
190.244	 -0.310	 -0.220
190.247	 -0.315	 -0.225
190.250	 -0.325	 -0.215
190.253	 -0.330	 -0.215
190.256	 -0.310	 -0.210
190.258	 -0.305	 -0.190
190.261	 -0.305	 -0.185
190.264	 -0.290	 -0.195
190.267	 -0.300	 -0.195
190.269	 -0.310	 -0.205
190.272	 -0.310	 -0.195
190.275	 -0.295	 -0.195
190.278	 -0.295	 -0.185
190.281	 -0.295	 -0.210
190.283	 -0.295	 -0.210
190.286	 -0.300	 -0.210
190.289	 -0.300	 -0.200
190.292	 -0.300	 -0.185
190.294	 -0.290	 -0.185
190.297	 -0.300	 -0.195
190.300	 -0.310	 -0.205
190.303	 -0.325	 -0.210
190.306	 -0.310	 -0.195
190.308	 -0.300	 -0.185
190.311	 -0.290	 -0.195
190.314	 -0.300	 -0.190
190.317	 -0.290	 -0.200
190.319	 -0.300	 -0.210
190.322	 -0.295	 -0.200
190.325	 -0.275	 -0.190
190.328	 -0.255	 -0.190
190.331	 -0.245	 -0.195
190.333	 -0.235	 -0.190
190.336	 -0.240	 -0.185
190.339	 -0.235	 -0.165
190.342	 -0.225	 -0.155
190.344	 -0.220	 -0.160
190.347	 -0.205	 -0.155
190.350	 -0.200	 -0.165
190.353	 -0.200	 -0.160
190.356	 -0.185	 -0.150
190.358	 -0.175	 -0.145
190.361	 -0.180	 -0.140
190.364	 -0.185	 -0.150
190.367	 -0.205	 -0.140
190.369	 -0.215	 -0.140
190.372	 -0.220	 -0.130
190.375	 -0.210	 -0.120
190.378	 -0.210	 -0.115
190.381	 -0.205	 -0.125
190.383	 -0.235	 -0.140
190.386	 -0.235	 -0.140
190.389	 -0.215	 -0.145
190.392	 -0.195	 -0.145
190.394	 -0.170	 -0.155
190.397	 -0.185	 -0.165
190.400	 -0.230	 -0.165
190.403	 -0.255	 -0.155
190.406	 -0.260	 -0.155
190.408	 -0.270	 -0.145
190.411	 -0.275	 -0.150
190.414	 -0.290	 -0.165
190.417	 -0.305	 -0.180
190.419	 -0.315	 -0.175
190.422	 -0.305	 -0.180
190.425	 -0.305	 -0.160
190.428	 -0.300	 -0.165
190.431	 -0.315	 -0.170
190.433	 -0.315	 -0.190
190.436	 -0.320	 -0.180
190.439	 -0.325	 -0.180
190.442	 -0.310	 -0.165
190.444	 -0.320	 -0.175
190.447	 -0.320	 -0.170
190.450	 -0.325	 -0.180
190.453	 -0.335	 -0.180
190.456	 -0.325	 -0.170
190.458	 -0.330	 -0.170
190.461	 -0.315	 -0.175
190.464	 -0.325	 -0.180
190.467	 -0.325	 -0.185
190.469	 -0.335	 -0.180
190.472	 -0.335	 -0.175
190.475	 -0.315	 -0.170
190.478	 -0.315	 -0.185
190.481	 -0.320	 -0.220
190.483	 -0.325	 -0.245
190.486	 -0.350	 -0.265
190.489	 -0.370	 -0.270
190.492	 -0.410	 -0.270
190.494	 -0.425	 -0.300
190.497	 -0.435	 -0.325
190.500	 -0.440	 -0.345
190.503	 -0.480	 -0.340
190.506	 -0.525	 -0.305
190.508	 -0.565	 -0.230
190.511	 -0.550	 -0.135
190.514	 -0.525	 -0.020
190.517	 -0.480	  0.070
190.519	 -0.385	  0.175
190.522	 -0.255	  0.260
190.525	 -0.135	  0.370
190.528	  0.035	  0.490
190.531	  0.260	  0.590
190.533	  0.495	  0.630
190.536	  0.715	  0.580
190.539	  0.870	  0.360
190.542	  0.925	  0.060
190.544	  0.790	 -0.155
190.547	  0.470	 -0.235
190.550	  0.070	 -0.220
190.553	 -0.270	 -0.200
190.556	 -0.430	 -0.200
190.558	 -0.455	 -0.195
190.561	 -0.405	 -0.185
190.564	 -0.345	 -0.205
190.567	 -0.335	 -0.210
190.569	 -0.355	 -0.205
190.572	 -0.345	 -0.200
190.575	 -0.340	 -0.200
190.578	 -0.335	 -0.200
190.581	 -0.330	 -0.210
190.583	 -0.345	 -0.205
190.586	 -0.355	 -0.215
190.589	 -0.350	 -0.215
190.592	 -0.345	 -0.190
190.594	 -0.340	 -0.200
190.597	 -0.340	 -0.210
190.600	 -0.345	 -0.205
190.603	 -0.370	 -0.215
190.606	 -0.355	 -0.195
190.608	 -0.350	 -0.195
190.611	 -0.355	 -0.200
190.614	 -0.355	 -0.190
190.617	 -0.365	 -0.220
190.619	 -0.365	 -0.220
190.622	 -0.365	 -0.200
190.625	 -0.350	 -0.195
190.628	 -0.335	 -0.190
190.631	 -0.335	 -0.200
190.633	 -0.350	 -0.210
190.636	 -0.355	 -0.195
190.639	 -0.345	 -0.190
190.642	 -0.335	 -0.180
190.644	 -0.335	 -0.195
190.647	 -0.330	 -0.200
190.650	 -0.345	 -0.205
190.653	 -0.350	 -0.205
190.656	 -0.355	 -0.195
190.658	 -0.330	 -0.180
190.661	 -0.330	 -0.180
190.664	 -0.335	 -0.200
190.667	 -0.335	 -0.215
190.669	 -0.350	 -0.220
190.672	 -0.345	 -0.195
190.675	 -0.345	 -0.195
190.678	 -0.330	 -0.175
190.681	 -0.350	 -0.200
190.683	 -0.345	 -0.210
190.686	 -0.350	 -0.210
190.689	 -0.350	 -0.215
190.692	 -0.340	 -0.205
190.694	 -0.335	 -0.205
190.697	 -0.340	 -0.200
190.700	 -0.345	 -0.210
190.703	 -0.360	 -0.195
190.706	 -0.345	 -0.200
190.708	 -0.335	 -0.200
190.711	 -0.330	 -0.210
190.714	 -0.330	 -0.210
190.717	 -0.340	 -0.235
190.719	 -0.345	 -0.225
190.722	 -0.340	 -0.225
190.725	 -0.335	 -0.215
190.728	 -0.315	 -0.225
190.731	 -0.315	 -0.230
190.733	 -0.325	 -0.255
190.736	 -0.340	 -0.250
190.739	 -0.330	 -0.250
190.742	 -0.330	 -0.235
190.744	 -0.325	 -0.240
190.747	 -0.315	 -0.240
190.750	 -0.320	 -0.255
190.753	 -0.340	 -0.245
190.756	 -0.330	 -0.245
190.758	 -0.325	 -0.235
190.761	 -0.320	 -0.245
190.764	 -0.320	 -0.255
190.767	 -0.335	 -0.280
190.769	 -0.345	 -0.285
190.772	 -0.335	 -0.285
190.775	 -0.325	 -0.285
190.778	 -0.330	 -0.280
190.781	 -0.340	 -0.300
190.783	 -0.345	 -0.320
190.786	 -0.350	 -0.320
190.789	 -0.350	 -0.315
190.792	 -0.335	 -0.305
190.794	 -0.340	 -0.305
190.797	 -0.345	 -0.300
190.800	 -0.345	 -0.330
190.803	 -0.355	 -0.330
190.806	 -0.355	 -0.310
190.808	 -0.345	 -0.310
190.811	 -0.340	 -0.300
190.814	 -0.345	 -0.320
190.817	 -0.350	 -0.315
190.819	 -0.360	 -0.300
190.822	 -0.355	 -0.275
190.825	 -0.350	 -0.255
190.828	 -0.330	 -0.240
190.831	 -0.330	 -0.245
190.833	 -0.325	 -0.250
190.836	 -0.340	 -0.230
190.839	 -0.315	 -0.210
190.842	 -0.300	 -0.190
190.844	 -0.295	 -0.185
190.847	 -0.285	 -0.170
190.850	 -0.285	 -0.180
190.853	 -0.285	 -0.170
190.856	 -0.275	 -0.165
190.858	 -0.255	 -0.140
190.861	 -0.250	 -0.155
190.864	 -0.245	 -0.150
190.867	 -0.255	 -0.155
190.869	 -0.275	 -0.165
190.872	 -0.260	 -0.145
190.875	 -0.240	 -0.135
190.878	 -0.230	 -0.135
190.881	 -0.240	 -0.130
190.883	 -0.245	 -0.150
190.886	 -0.250	 -0.130
190.889	 -0.240	 -0.135
190.892	 -0.235	 -0.120
190.894	 -0.235	 -0.125
190.897	 -0.245	 -0.135
190.900	 -0.255	 -0.150
190.903	 -0.260	 -0.145
190.906	 -0.255	 -0.140
190.908	 -0.250	 -0.120
190.911	 -0.245	 -0.130
190.914	 -0.250	 -0.125
190.917	 -0.255	 -0.135
190.919	 -0.265	 -0.140
190.922	 -0.255	 -0.145
190.925	 -0.240	 -0.140
190.928	 -0.245	 -0.140
190.931	 -0.250	 -0.135
190.933	 -0.260	 -0.140
190.936	 -0.265	 -0.150
190.939	 -0.265	 -0.140
190.942	 -0.265	 -0.140
190.944	 -0.255	 -0.150
190.947	 -0.255	 -0.155
190.950	 -0.270	 -0.150
190.953	 -0.270	 -0.130
190.956	 -0.265	 -0.140
190.958	 -0.255	 -0.125
190.961	 -0.250	 -0.130
190.964	 -0.255	 -0.140
190.967	 -0.270	 -0.145
190.969	 -0.275	 -0.155
190.972	 -0.280	 -0.145
190.975	 -0.280	 -0.145
190.978	 -0.275	 -0.155
190.981	 -0.280	 -0.160
190.983	 -0.290	 -0.170
190.986	 -0.300	 -0.160
190.989	 -0.300	 -0.160
190.992	 -0.300	 -0.155
190.994	 -0.305	 -0.155
190.997	 -0.300	 -0.170
191.000	 -0.310	 -0.180
191.003	 -0.325	 -0.185
191.006	 -0.310	 -0.170
191.008	 -0.300	 -0.150
191.011	 -0.290	 -0.155
191.014	 -0.295	 -0.165
191.017	 -0.300	 -0.165
191.019	 -0.325	 -0.175
191.022	 -0.315	 -0.155
191.025	 -0.290	 -0.160
191.028	 -0.285	 -0.150
191.031	 -0.295	 -0.160
191.033	 -0.300	 -0.185
191.036	 -0.310	 -0.170
191.039	 -0.310	 -0.170
191.042	 -0.305	 -0.160
191.044	 -0.290	 -0.170
191.047	 -0.300	 -0.165
191.050	 -0.315	 -0.170
191.053	 -0.345	 -0.170
191.056	 -0.325	 -0.160
191.058	 -0.320	 -0.160
191.061	 -0.295	 -0.165
191.064	 -0.310	 -0.175
191.067	 -0.315	 -0.175
191.069	 -0.320	 -0.170
191.072	 -0.310	 -0.175
191.075	 -0.310	 -0.150
191.078	 -0.305	 -0.150
191.081	 -0.295	 -0.160
191.083	 -0.300	 -0.165
191.086	 -0.295	 -0.175
191.089	 -0.290	 -0.170
191.092	 -0.295	 -0.160
191.094	 -0.290	 -0.160
191.097	 -0.300	 -0.170
191.100	 -0.305	 -0.175
191.103	 -0.305	 -0.165
191.106	 -0.305	 -0.160
191.108	 -0.280	 -0.165
191.111	 -0.280	 -0.155
191.114	 -0.275	 -0.160
191.117	 -0.285	 -0.165
191.119	 -0.310	 -0.175
191.122	 -0.290	 -0.170
191.125	 -0.285	 -0.160
191.128	 -0.265	 -0.170
191.131	 -0.255	 -0.180
191.133	 -0.250	 -0.185
191.136	 -0.255	 -0.175
191.139	 -0.250	 -0.160
191.142	 -0.245	 -0.150
191.144	 -0.240	 -0.160
191.147	 -0.215	 -0.155
191.150	 -0.210	 -0.165
191.153	 -0.225	 -0.165
191.156	 -0.215	 -0.135
191.158	 -0.205	 -0.125
191.161	 -0.185	 -0.125
191.164	 -0.175	 -0.135
191.167	 -0.195	 -0.140
191.169	 -0.190	 -0.140
191.172	 -0.175	 -0.140
191.175	 -0.180	 -0.135
191.178	 -0.180	 -0.115
191.181	 -0.190	 -0.120
191.183	 -0.205	 -0.125
191.186	 -0.215	 -0.125
191.189	 -0.200	 -0.115
191.192	 -0.190	 -0.100
191.194	 -0.195	 -0.115
191.197	 -0.215	 -0.105
191.200	 -0.230	 -0.135
191.203	 -0.240	 -0.140
191.206	 -0.230	 -0.140
191.208	 -0.205	 -0.135
191.211	 -0.190	 -0.145
191.214	 -0.205	 -0.145
191.217	 -0.230	 -0.160
191.219	 -0.260	 -0.170
191.222	 -0.265	 -0.165
191.225	 -0.260	 -0.160
191.228	 -0.285	 -0.155
191.231	 -0.305	 -0.175
191.233	 -0.310	 -0.190
191.236	 -0.325	 -0.180
191.239	 -0.325	 -0.185
191.242	 -0.330	 -0.165
191.244	 -0.315	 -0.180
191.247	 -0.305	 -0.180
191.250	 -0.300	 -0.195
191.253	 -0.320	 -0.195
191.256	 -0.325	 -0.185
191.258	 -0.330	 -0.165
191.261	 -0.305	 -0.175
191.264	 -0.310	 -0.185
191.267	 -0.315	 -0.200
191.269	 -0.325	 -0.195
191.272	 -0.330	 -0.180
191.275	 -0.320	 -0.175
191.278	 -0.320	 -0.185
191.281	 -0.330	 -0.190
191.283	 -0.345	 -0.180
191.286	 -0.345	 -0.180
191.289	 -0.335	 -0.180
191.292	 -0.330	 -0.180
191.294	 -0.325	 -0.185
191.297	 -0.330	 -0.225
191.300	 -0.360	 -0.245
191.303	 -0.385	 -0.250
191.306	 -0.395	 -0.255
191.308	 -0.420	 -0.260
191.311	 -0.405	 -0.280
191.314	 -0.415	 -0.300
191.317	 -0.430	 -0.300
191.319	 -0.510	 -0.245
191.322	 -0.535	 -0.150
191.325	 -0.525	 -0.045
191.328	 -0.460	  0.025
191.331	 -0.365	  0.095
191.333	 -0.270	  0.145
191.336	 -0.140	  0.240
191.339	  0.050	  0.375
191.342	  0.300	  0.485
191.344	  0.555	  0.510
191.347	  0.755	  0.405
191.350	  0.860	  0.150
191.353	  0.820	 -0.135
191.356	  0.625	 -0.295
191.358	  0.305	 -0.305
191.361	 -0.035	 -0.260
191.364	 -0.275	 -0.235
191.367	 -0.430	 -0.235
191.369	 -0.470	 -0.225
191.372	 -0.440	 -0.215
191.375	 -0.400	 -0.200
191.378	 -0.375	 -0.210
191.381	 -0.375	 -0.210
191.383	 -0.385	 -0.225
191.386	 -0.395	 -0.225
191.389	 -0.370	 -0.205
191.392	 -0.370	 -0.205
191.394	 -0.365	 -0.215
191.397	 -0.365	 -0.210
191.400	 -0.380	 -0.220
191.403	 -0.390	 -0.215
191.406	 -0.380	 -0.205
191.408	 -0.370	 -0.195
191.411	 -0.355	 -0.200
191.414	 -0.360	 -0.210
191.417	 -0.365	 -0.225
191.419	 -0.370	 -0.220
191.422	 -0.375	 -0.215
191.425	 -0.365	 -0.200
191.428	 -0.360	 -0.200
191.431	 -0.355	 -0.210
191.433	 -0.375	 -0.225
191.436	 -0.385	 -0.225
191.439	 -0.385	 -0.210
191.442	 -0.375	 -0.200
191.444	 -0.370	 -0.195
191.447	 -0.375	 -0.205
191.450	 -0.375	 -0.200
191.453	 -0.380	 -0.215
191.456	 -0.365	 -0.220
191.458	 -0.370	 -0.195
191.461	 -0.370	 -0.205
191.464	 -0.355	 -0.205
191.467	 -0.365	 -0.210
191.469	 -0.380	 -0.210
191.472	 -0.375	 -0.210
191.475	 -0.370	 -0.190
191.478	 -0.375	 -0.200
191.481	 -0.375	 -0.220
191.483	 -0.360	 -0.235
191.486	 -0.385	 -0.220
191.489	 -0.370	 -0.210
191.492	 -0.370	 -0.205
191.494	 -0.365	 -0.210
191.497	 -0.355	 -0.205
191.500	 -0.350	 -0.220
191.503	 -0.365	 -0.225
191.506	 -0.360	 -0.220
191.508	 -0.360	 -0.200
191.511	 -0.355	 -0.205
191.514	 -0.360	 -0.210
191.517	 -0.375	 -0.225
191.519	 -0.385	 -0.230
191.522	 -0.385	 -0.220
191.525	 -0.370	 -0.195
191.528	 -0.370	 -0.205
191.531	 -0.365	 -0.210
191.533	 -0.365	 -0.225
191.536	 -0.370	 -0.235
191.539	 -0.365	 -0.240
191.542	 -0.360	 -0.225
191.544	 -0.360	 -0.220
191.547	 -0.365	 -0.220
191.550	 -0.365	 -0.235
191.553	 -0.380	 -0.255
191.556	 -0.365	 -0.255
191.558	 -0.365	 -0.240
191.561	 -0.365	 -0.245
191.564	 -0.365	 -0.260
191.567	 -0.385	 -0.265
191.569	 -0.375	 -0.260
191.572	 -0.385	 -0.260
191.575	 -0.375	 -0.245
191.578	 -0.355	 -0.260
191.581	 -0.355	 -0.285
191.583	 -0.375	 -0.295
191.586	 -0.385	 -0.315
191.589	 -0.385	 -0.305
191.592	 -0.380	 -0.305
191.594	 -0.395	 -0.315
191.597	 -0.405	 -0.320
191.600	 -0.420	 -0.350
191.603	 -0.430	 -0.350
191.606	 -0.415	 -0.335
191.608	 -0.405	 -0.340
191.611	 -0.405	 -0.335
191.614	 -0.410	 -0.335
191.617	 -0.425	 -0.345
191.619	 -0.415	 -0.340
191.622	 -0.415	 -0.350
191.625	 -0.405	 -0.345
191.628	 -0.405	 -0.350
191.631	 -0.410	 -0.340
191.633	 -0.425	 -0.345
191.636	 -0.430	 -0.350
191.639	 -0.425	 -0.325
191.642	 -0.420	 -0.295
191.644	 -0.405	 -0.300
191.647	 -0.390	 -0.285
191.650	 -0.380	 -0.275
191.653	 -0.375	 -0.265
191.656	 -0.365	 -0.260
191.658	 -0.350	 -0.250
191.661	 -0.335	 -0.235
191.664	 -0.340	 -0.230
191.667	 -0.330	 -0.235
191.669	 -0.335	 -0.225
191.672	 -0.335	 -0.205
191.675	 -0.310	 -0.180
191.678	 -0.295	 -0.170
191.681	 -0.290	 -0.180
191.683	 -0.295	 -0.190
191.686	 -0.290	 -0.195
191.689	 -0.275	 -0.190
191.692	 -0.270	 -0.180
191.694	 -0.265	 -0.175
191.697	 -0.270	 -0.190
191.700	 -0.280	 -0.200
191.703	 -0.295	 -0.185
191.706	 -0.285	 -0.180
191.708	 -0.270	 -0.170
191.711	 -0.260	 -0.170
191.714	 -0.270	 -0.175
191.717	 -0.285	 -0.185
191.719	 -0.290	 -0.185
191.722	 -0.280	 -0.180
191.725	 -0.270	 -0.170
191.728	 -0.265	 -0.170
191.731	 -0.270	 -0.175
191.733	 -0.280	 -0.185
191.736	 -0.290	 -0.185
191.739	 -0.285	 -0.170
191.742	 -0.275	 -0.160
191.744	 -0.265	 -0.175
191.747	 -0.270	 -0.180
191.750	 -0.270	 -0.185
191.753	 -0.280	 -0.205
191.756	 -0.275	 -0.190
191.758	 -0.275	 -0.185
191.761	 -0.270	 -0.180
191.764	 -0.275	 -0.185
191.767	 -0.290	 -0.190
191.769	 -0.300	 -0.195
191.772	 -0.295	 -0.195
191.775	 -0.285	 -0.175
191.778	 -0.265	 -0.180
191.781	 -0.275	 -0.190
191.783	 -0.285	 -0.190
191.786	 -0.295	 -0.195
191.789	 -0.290	 -0.175
191.792	 -0.295	 -0.165
191.794	 -0.295	 -0.185
191.797	 -0.285	 -0.190
191.800	 -0.300	 -0.215
191.803	 -0.305	 -0.200
191.806	 -0.305	 -0.190
191.808	 -0.295	 -0.175
191.811	 -0.285	 -0.190
191.814	 -0.295	 -0.190
191.817	 -0.300	 -0.200
191.819	 -0.310	 -0.205
191.822	 -0.310	 -0.195
191.825	 -0.300	 -0.200
191.828	 -0.295	 -0.200
191.831	 -0.300	 -0.195
191.833	 -0.315	 -0.210
191.836	 -0.330	 -0.210
191.839	 -0.325	 -0.210
191.842	 -0.315	 -0.190
191.844	 -0.300	 -0.195
191.847	 -0.305	 -0.210
191.850	 -0.300	 -0.220
191.853	 -0.320	 -0.220
191.856	 -0.310	 -0.205
191.858	 -0.310	 -0.190
191.861	 -0.295	 -0.200
191.864	 -0.305	 -0.190
191.867	 -0.315	 -0.200
191.869	 -0.320	 -0.205
191.872	 -0.315	 -0.200
191.875	 -0.315	 -0.190
191.878	 -0.305	 -0.185
191.881	 -0.305	 -0.195
191.883	 -0.305	 -0.200
191.886	 -0.320	 -0.205
191.889	 -0.315	 -0.200
191.892	 -0.315	 -0.200
191.894	 -0.310	 -0.195
191.897	 -0.300	 -0.195
191.900	 -0.315	 -0.205
191.903	 -0.315	 -0.210
191.906	 -0.320	 -0.190
191.908	 -0.310	 -0.185
191.911	 -0.310	 -0.175
191.914	 -0.300	 -0.185
191.917	 -0.305	 -0.200
191.919	 -0.315	 -0.200
191.922	 -0.315	 -0.200
191.925	 -0.300	 -0.190
191.928	 -0.295	 -0.190
191.931	 -0.300	 -0.195
191.933	 -0.305	 -0.200
191.936	 -0.315	 -0.205
191.939	 -0.315	 -0.195
191.942	 -0.300	 -0.190
191.944	 -0.310	 -0.175
191.947	 -0.305	 -0.190
191.950	 -0.310	 -0.195
191.953	 -0.325	 -0.205
191.956	 -0.315	 -0.185
191.958	 -0.315	 -0.170
191.961	 -0.300	 -0.180
191.964	 -0.285	 -0.195
191.967	 -0.300	 -0.190
191.969	 -0.290	 -0.200
191.972	 -0.285	 -0.185
191.975	 -0.260	 -0.180
191.978	 -0.240	 -0.175
191.981	 -0.255	 -0.180
191.983	 -0.250	 -0.185
191.986	 -0.260	 -0.185
191.989	 -0.250	 -0.175
191.992	 -0.225	 -0.160
191.994	 -0.220	 -0.150
191.997	 -0.215	 -0.160
192.000	 -0.210	 -0.165
192.003	 -0.215	 -0.160
192.006	 -0.205	 -0.155
192.008	 -0.190	 -0.135
192.011	 -0.175	 -0.135
192.014	 -0.185	 -0.140
192.017	 -0.195	 -0.155
192.019	 -0.200	 -0.155
192.022	 -0.210	 -0.140
192.025	 -0.210	 -0.105
192.028	 -0.200	 -0.120
192.031	 -0.200	 -0.125
192.033	 -0.205	 -0.140
192.036	 -0.225	 -0.125
192.039	 -0.220	 -0.125
192.042	 -0.220	 -0.125
192.044	 -0.195	 -0.140
192.047	 -0.185	 -0.150
192.050	 -0.195	 -0.160
192.053	 -0.215	 -0.160
192.056	 -0.235	 -0.155
192.058	 -0.245	 -0.145
192.061	 -0.245	 -0.145
192.064	 -0.260	 -0.165
192.067	 -0.285	 -0.175
192.069	 -0.300	 -0.180
192.072	 -0.300	 -0.175
192.075	 -0.295	 -0.160
192.078	 -0.295	 -0.160
192.081	 -0.295	 -0.170
192.083	 -0.305	 -0.170
192.086	 -0.310	 -0.180
192.089	 -0.305	 -0.175
192.092	 -0.305	 -0.150
192.094	 -0.300	 -0.165
192.097	 -0.300	 -0.165
192.100	 -0.305	 -0.170
192.103	 -0.320	 -0.175
192.106	 -0.310	 -0.165
192.108	 -0.305	 -0.155
192.111	 -0.290	 -0.150
192.114	 -0.305	 -0.160
192.117	 -0.300	 -0.170
192.119	 -0.320	 -0.175
192.122	 -0.320	 -0.170
192.125	 -0.305	 -0.155
192.128	 -0.310	 -0.160
192.131	 -0.315	 -0.170
192.133	 -0.315	 -0.165
192.136	 -0.320	 -0.175
192.139	 -0.320	 -0.155
192.142	 -0.315	 -0.160
192.144	 -0.315	 -0.170
192.147	 -0.305	 -0.195
192.150	 -0.320	 -0.225
192.153	 -0.350	 -0.230
192.156	 -0.370	 -0.255
192.158	 -0.390	 -0.275
192.161	 -0.410	 -0.285
192.164	 -0.430	 -0.240
192.167	 -0.475	 -0.180
192.169	 -0.505	 -0.075
192.172	 -0.490	  0.045
192.175	 -0.405	  0.140
192.178	 -0.280	  0.215
192.181	 -0.145	  0.305
192.183	  0.000	  0.410
192.186	  0.215	  0.520
192.189	  0.470	  0.615
192.192	  0.705	  0.575
192.194	  0.875	  0.385
192.197	  0.925	  0.080
192.200	  0.810	 -0.170
192.203	  0.545	 -0.275
192.206	  0.180	 -0.255
192.208	 -0.135	 -0.205
192.211	 -0.330	 -0.195
192.214	 -0.400	 -0.185
192.217	 -0.425	 -0.185
192.219	 -0.390	 -0.170
192.222	 -0.350	 -0.165
192.225	 -0.330	 -0.155
192.228	 -0.325	 -0.155
192.231	 -0.315	 -0.155
192.233	 -0.325	 -0.170
192.236	 -0.335	 -0.170
192.239	 -0.330	 -0.170
192.242	 -0.320	 -0.160
192.244	 -0.320	 -0.160
192.247	 -0.320	 -0.160
192.250	 -0.330	 -0.165
192.253	 -0.340	 -0.180
192.256	 -0.340	 -0.165
192.258	 -0.330	 -0.150
192.261	 -0.320	 -0.150
192.264	 -0.320	 -0.165
192.267	 -0.325	 -0.170
192.269	 -0.340	 -0.165
192.272	 -0.340	 -0.150
192.275	 -0.330	 -0.160
192.278	 -0.335	 -0.140
192.281	 -0.325	 -0.145
192.283	 -0.330	 -0.160
192.286	 -0.340	 -0.155
192.289	 -0.335	 -0.160
192.292	 -0.340	 -0.150
192.294	 -0.315	 -0.140
192.297	 -0.315	 -0.130
192.300	 -0.325	 -0.135
192.303	 -0.330	 -0.140
192.306	 -0.325	 -0.135
192.308	 -0.320	 -0.135
192.311	 -0.310	 -0.135
192.314	 -0.315	 -0.140
192.317	 -0.320	 -0.150
192.319	 -0.335	 -0.140
192.322	 -0.335	 -0.135
192.325	 -0.325	 -0.125
192.328	 -0.325	 -0.130
192.331	 -0.315	 -0.145
192.333	 -0.330	 -0.140
192.336	 -0.330	 -0.145
192.339	 -0.330	 -0.145
192.342	 -0.320	 -0.130
192.344	 -0.315	 -0.125
192.347	 -0.320	 -0.135
192.350	 -0.320	 -0.145
192.353	 -0.325	 -0.140
192.356	 -0.325	 -0.135
192.358	 -0.320	 -0.135
192.361	 -0.305	 -0.145
192.364	 -0.315	 -0.150
192.367	 -0.320	 -0.155
192.369	 -0.320	 -0.150
192.372	 -0.320	 -0.145
192.375	 -0.315	 -0.140
192.378	 -0.305	 -0.135
192.381	 -0.310	 -0.130
192.383	 -0.325	 -0.145
192.386	 -0.330	 -0.155
192.389	 -0.325	 -0.155
192.392	 -0.320	 -0.145
192.394	 -0.310	 -0.160
192.397	 -0.325	 -0.160
192.400	 -0.320	 -0.160
192.403	 -0.330	 -0.170
192.406	 -0.335	 -0.160
192.408	 -0.320	 -0.160
192.411	 -0.325	 -0.160
192.414	 -0.320	 -0.170
192.417	 -0.325	 -0.190
192.419	 -0.335	 -0.195
192.422	 -0.340	 -0.190
192.425	 -0.330	 -0.195
192.428	 -0.320	 -0.190
192.431	 -0.320	 -0.205
192.433	 -0.335	 -0.225
192.436	 -0.350	 -0.235
192.439	 -0.335	 -0.225
192.442	 -0.335	 -0.225
192.444	 -0.335	 -0.230
192.447	 -0.340	 -0.245
192.450	 -0.350	 -0.260
192.453	 -0.355	 -0.260
192.456	 -0.360	 -0.270
192.458	 -0.355	 -0.265
192.461	 -0.345	 -0.265
192.464	 -0.340	 -0.280
192.467	 -0.360	 -0.290
192.469	 -0.370	 -0.290
192.472	 -0.370	 -0.290
192.475	 -0.360	 -0.280
192.478	 -0.365	 -0.280
192.481	 -0.365	 -0.285
192.483	 -0.365	 -0.295
192.486	 -0.375	 -0.285
192.489	 -0.380	 -0.280
192.492	 -0.365	 -0.260
192.494	 -0.360	 -0.245
192.497	 -0.365	 -0.245
192.500	 -0.365	 -0.240
192.503	 -0.355	 -0.240
192.506	 -0.345	 -0.220
192.508	 -0.330	 -0.190
192.511	 -0.320	 -0.175
192.514	 -0.315	 -0.175
192.517	 -0.310	 -0.165
192.519	 -0.305	 -0.160
192.522	 -0.295	 -0.135
192.525	 -0.280	 -0.120
192.528	 -0.265	 -0.125
192.531	 -0.250	 -0.120
192.533	 -0.260	 -0.120
192.536	 -0.255	 -0.125
192.539	 -0.265	 -0.110
192.542	 -0.250	 -0.105
192.544	 -0.235	 -0.090
192.547	 -0.230	 -0.100
192.550	 -0.230	 -0.095
192.553	 -0.240	 -0.100
192.556	 -0.240	 -0.090
192.558	 -0.230	 -0.075
192.561	 -0.220	 -0.080
192.564	 -0.215	 -0.085
192.567	 -0.225	 -0.100
192.569	 -0.235	 -0.095
192.572	 -0.225	 -0.085
192.575	 -0.235	 -0.070
192.578	 -0.215	 -0.075
192.581	 -0.225	 -0.080
192.583	 -0.235	 -0.085
192.586	 -0.245	 -0.095
192.589	 -0.245	 -0.090
192.592	 -0.240	 -0.090
192.594	 -0.225	 -0.085
192.597	 -0.230	 -0.080
192.600	 -0.235	 -0.095
192.603	 -0.250	 -0.100
192.606	 -0.250	 -0.095
192.608	 -0.245	 -0.085
192.611	 -0.230	 -0.090
192.614	 -0.230	 -0.090
192.617	 -0.245	 -0.115
192.619	 -0.255	 -0.105
192.622	 -0.250	 -0.105
192.625	 -0.250	 -0.090
192.628	 -0.230	 -0.100
192.631	 -0.240	 -0.100
192.633	 -0.240	 -0.110
192.636	 -0.245	 -0.125
192.639	 -0.245	 -0.110
192.642	 -0.235	 -0.110
192.644	 -0.240	 -0.095
192.647	 -0.235	 -0.100
192.650	 -0.245	 -0.115
192.653	 -0.255	 -0.125
192.656	 -0.250	 -0.110
192.658	 -0.245	 -0.110
192.661	 -0.245	 -0.110
192.664	 -0.240	 -0.105
192.667	 -0.255	 -0.110
192.669	 -0.275	 -0.120
192.672	 -0.275	 -0.115
192.675	 -0.260	 -0.105
192.678	 -0.270	 -0.105
192.681	 -0.265	 -0.110
192.683	 -0.265	 -0.120
192.686	 -0.275	 -0.125
192.689	 -0.275	 -0.110
192.692	 -0.265	 -0.115
192.694	 -0.265	 -0.115
192.697	 -0.265	 -0.125
192.700	 -0.275	 -0.130
192.703	 -0.285	 -0.125
192.706	 -0.275	 -0.120
192.708	 -0.285	 -0.120
192.711	 -0.265	 -0.115
192.714	 -0.265	 -0.115
192.717	 -0.265	 -0.130
192.719	 -0.275	 -0.135
192.722	 -0.285	 -0.120
192.725	 -0.270	 -0.110
192.728	 -0.270	 -0.110
192.731	 -0.270	 -0.110
192.733	 -0.265	 -0.130
192.736	 -0.280	 -0.135
192.739	 -0.270	 -0.125
192.742	 -0.270	 -0.125
192.744	 -0.270	 -0.125
192.747	 -0.265	 -0.120
192.750	 -0.275	 -0.120
192.753	 -0.285	 -0.125
192.756	 -0.280	 -0.125
192.758	 -0.275	 -0.105
192.761	 -0.275	 -0.105
192.764	 -0.275	 -0.120
192.767	 -0.290	 -0.130
192.769	 -0.295	 -0.125
192.772	 -0.300	 -0.115
192.775	 -0.285	 -0.095
192.778	 -0.275	 -0.100
192.781	 -0.280	 -0.115
192.783	 -0.280	 -0.135
192.786	 -0.295	 -0.135
192.789	 -0.300	 -0.110
192.792	 -0.290	 -0.095
192.794	 -0.280	 -0.105
192.797	 -0.270	 -0.095
192.800	 -0.285	 -0.110
192.803	 -0.300	 -0.110
192.806	 -0.290	 -0.105
192.808	 -0.280	 -0.105
192.811	 -0.270	 -0.100
192.814	 -0.265	 -0.105
192.817	 -0.275	 -0.105
192.819	 -0.285	 -0.115
192.822	 -0.285	 -0.105
192.825	 -0.265	 -0.090
192.828	 -0.260	 -0.100
192.831	 -0.265	 -0.110
192.833	 -0.285	 -0.120
192.836	 -0.285	 -0.120
192.839	 -0.280	 -0.115
192.842	 -0.260	 -0.105
192.844	 -0.245	 -0.115
192.847	 -0.235	 -0.110
192.850	 -0.225	 -0.125
192.853	 -0.225	 -0.120
192.856	 -0.220	 -0.125
192.858	 -0.220	 -0.105
192.861	 -0.200	 -0.100
192.864	 -0.205	 -0.100
192.867	 -0.210	 -0.105
192.869	 -0.215	 -0.105
192.872	 -0.200	 -0.090
192.875	 -0.180	 -0.075
192.878	 -0.185	 -0.070
192.881	 -0.175	 -0.085
192.883	 -0.180	 -0.085
192.886	 -0.180	 -0.095
192.889	 -0.175	 -0.085
192.892	 -0.160	 -0.065
192.894	 -0.155	 -0.070
192.897	 -0.155	 -0.065
192.900	 -0.185	 -0.070
192.903	 -0.195	 -0.065
192.906	 -0.195	 -0.045
192.908	 -0.195	 -0.060
192.911	 -0.180	 -0.055
192.914	 -0.190	 -0.045
192.917	 -0.195	 -0.055
192.919	 -0.210	 -0.055
192.922	 -0.205	 -0.055
192.925	 -0.170	 -0.065
192.928	 -0.150	 -0.080
192.931	 -0.170	 -0.070
192.933	 -0.200	 -0.090
192.936	 -0.245	 -0.090
192.939	 -0.255	 -0.075
192.942	 -0.255	 -0.085
192.944	 -0.250	 -0.085
192.947	 -0.255	 -0.095
192.950	 -0.280	 -0.110
192.953	 -0.305	 -0.115
192.956	 -0.310	 -0.100
192.958	 -0.300	 -0.090
192.961	 -0.295	 -0.100
192.964	 -0.300	 -0.115
192.967	 -0.310	 -0.115
192.969	 -0.310	 -0.120
192.972	 -0.315	 -0.110
192.975	 -0.310	 -0.105
192.978	 -0.310	 -0.100
192.981	 -0.315	 -0.110
192.983	 -0.320	 -0.115
192.986	 -0.320	 -0.120
192.989	 -0.320	 -0.125
192.992	 -0.310	 -0.115
192.994	 -0.305	 -0.110
192.997	 -0.315	 -0.125
193.000	 -0.320	 -0.125
193.003	 -0.320	 -0.125
193.006	 -0.320	 -0.120
193.008	 -0.310	 -0.120
193.011	 -0.315	 -0.140
193.014	 -0.310	 -0.175
193.017	 -0.330	 -0.205
193.019	 -0.370	 -0.235
193.022	 -0.410	 -0.245
193.025	 -0.420	 -0.255
193.028	 -0.425	 -0.270
193.031	 -0.440	 -0.255
193.033	 -0.485	 -0.200
193.036	 -0.530	 -0.090
193.039	 -0.540	  0.050
193.042	 -0.460	  0.185
193.044	 -0.340	  0.275
193.047	 -0.200	  0.395
193.050	 -0.075	  0.485
193.053	  0.090	  0.605
193.056	  0.335	  0.730
193.058	  0.610	  0.840
193.061	  0.835	  0.850
193.064	  0.970	  0.715
193.067	  1.035	  0.410
193.069	  0.980	  0.075
193.072	  0.755	 -0.150
193.075	  0.400	 -0.170
193.078	  0.040	 -0.150
193.081	 -0.260	 -0.150
193.083	 -0.415	 -0.170
193.086	 -0.450	 -0.170
193.089	 -0.410	 -0.155
193.092	 -0.355	 -0.150
193.094	 -0.320	 -0.160
193.097	 -0.330	 -0.170
193.100	 -0.350	 -0.185
193.103	 -0.360	 -0.190
193.106	 -0.350	 -0.175
193.108	 -0.345	 -0.170
193.111	 -0.350	 -0.170
193.114	 -0.345	 -0.180
193.117	 -0.350	 -0.180
193.119	 -0.375	 -0.185
193.122	 -0.360	 -0.185
193.125	 -0.370	 -0.165
193.128	 -0.355	 -0.170
193.131	 -0.350	 -0.180
193.133	 -0.365	 -0.175
193.136	 -0.370	 -0.190
193.139	 -0.375	 -0.180
193.142	 -0.360	 -0.170
193.144	 -0.360	 -0.160
193.147	 -0.355	 -0.180
193.150	 -0.360	 -0.170
193.153	 -0.370	 -0.185
193.156	 -0.360	 -0.175
193.158	 -0.350	 -0.170
193.161	 -0.355	 -0.175
193.164	 -0.350	 -0.170
193.167	 -0.360	 -0.180
193.169	 -0.375	 -0.180
193.172	 -0.370	 -0.170
193.175	 -0.355	 -0.170
193.178	 -0.345	 -0.160
193.181	 -0.350	 -0.175
193.183	 -0.360	 -0.180
193.186	 -0.370	 -0.190
193.189	 -0.370	 -0.170
193.192	 -0.370	 -0.165
193.194	 -0.355	 -0.165
193.197	 -0.350	 -0.170
193.200	 -0.365	 -0.190
193.203	 -0.375	 -0.195
193.206	 -0.360	 -0.185
193.208	 -0.370	 -0.185
193.211	 -0.355	 -0.180
193.214	 -0.345	 -0.185
193.217	 -0.355	 -0.185
193.219	 -0.360	 -0.195
193.222	 -0.370	 -0.180
193.225	 -0.350	 -0.175
193.228	 -0.345	 -0.195
193.231	 -0.345	 -0.190
193.233	 -0.355	 -0.210
193.236	 -0.365	 -0.215
193.239	 -0.360	 -0.225
193.242	 -0.350	 -0.210
193.244	 -0.345	 -0.195
193.247	 -0.355	 -0.210
193.250	 -0.350	 -0.225
193.253	 -0.365	 -0.225
193.256	 -0.370	 -0.225
193.258	 -0.355	 -0.215
193.261	 -0.355	 -0.230
193.264	 -0.360	 -0.225
193.267	 -0.360	 -0.250
193.269	 -0.365	 -0.255
193.272	 -0.355	 -0.255
193.275	 -0.355	 -0.260
193.278	 -0.350	 -0.255
193.281	 -0.350	 -0.270
193.283	 -0.360	 -0.285
193.286	 -0.380	 -0.285
193.289	 -0.375	 -0.285
193.292	 -0.365	 -0.285
193.294	 -0.350	 -0.295
193.297	 -0.355	 -0.320
193.300	 -0.360	 -0.340
193.303	 -0.360	 -0.330
193.306	 -0.370	 -0.320
193.308	 -0.365	 -0.325
193.311	 -0.360	 -0.330
193.314	 -0.355	 -0.335
193.317	 -0.365	 -0.350
193.319	 -0.375	 -0.365
193.322	 -0.390	 -0.355
193.325	 -0.375	 -0.350
193.328	 -0.365	 -0.345
193.331	 -0.375	 -0.340
