120.000	 -5.535	 -5.695
120.004	 -5.550	 -5.685
120.008	 -5.565	 -5.675
120.012	 -5.575	 -5.665
120.016	 -5.590	 -5.650
120.020	 -5.610	 -5.645
120.024	 -5.625	 -5.635
120.028	 -5.640	 -5.625
120.032	 -5.665	 -5.620
120.036	 -5.690	 -5.615
120.040	 -5.710	 -5.620
120.044	 -5.730	 -5.615
120.048	 -5.750	 -5.615
120.052	 -5.760	 -5.620
120.056	 -5.780	 -5.630
120.060	 -5.795	 -5.630
120.064	 -5.805	 -5.635
120.068	 -5.820	 -5.645
120.072	 -5.825	 -5.645
120.076	 -5.840	 -5.655
120.080	 -5.855	 -5.665
120.084	 -5.865	 -5.660
120.088	 -5.875	 -5.665
120.092	 -5.880	 -5.675
120.096	 -5.880	 -5.680
120.100	 -5.880	 -5.685
120.104	 -5.880	 -5.685
120.108	 -5.880	 -5.675
120.112	 -5.880	 -5.665
120.116	 -5.885	 -5.665
120.120	 -5.875	 -5.660
120.124	 -5.860	 -5.655
120.128	 -5.850	 -5.650
120.132	 -5.855	 -5.650
120.136	 -5.860	 -5.645
120.140	 -5.855	 -5.640
120.144	 -5.845	 -5.630
120.148	 -5.840	 -5.625
120.152	 -5.840	 -5.625
120.156	 -5.835	 -5.615
120.160	 -5.825	 -5.610
120.164	 -5.810	 -5.605
120.168	 -5.795	 -5.600
120.172	 -5.785	 -5.600
120.176	 -5.775	 -5.600
120.180	 -5.770	 -5.600
120.184	 -5.760	 -5.595
120.188	 -5.760	 -5.585
120.192	 -5.765	 -5.575
120.196	 -5.760	 -5.575
120.200	 -5.745	 -5.580
120.204	 -5.740	 -5.575
120.208	 -5.720	 -5.575
120.212	 -5.715	 -5.575
120.216	 -5.710	 -5.570
120.220	 -5.720	 -5.550
120.224	 -5.720	 -5.525
120.228	 -5.720	 -5.520
120.232	 -5.720	 -5.520
120.236	 -5.725	 -5.525
120.240	 -5.740	 -5.525
120.244	 -5.760	 -5.535
120.248	 -5.785	 -5.545
120.252	 -5.800	 -5.555
120.256	 -5.820	 -5.570
120.260	 -5.840	 -5.590
120.264	 -5.870	 -5.600
120.268	 -5.875	 -5.605
120.272	 -5.880	 -5.615
120.276	 -5.885	 -5.630
120.280	 -5.890	 -5.645
120.284	 -5.890	 -5.660
120.288	 -5.885	 -5.665
120.292	 -5.895	 -5.675
120.296	 -5.895	 -5.680
120.300	 -5.885	 -5.685
120.304	 -5.885	 -5.685
120.308	 -5.885	 -5.690
120.312	 -5.885	 -5.700
120.316	 -5.885	 -5.695
120.320	 -5.900	 -5.705
120.324	 -5.920	 -5.700
120.328	 -5.885	 -5.705
120.332	 -5.785	 -5.715
120.336	 -5.640	 -5.735
120.340	 -5.470	 -5.735
120.344	 -5.190	 -5.695
120.348	 -4.805	 -5.655
120.352	 -4.415	 -5.640
120.356	 -4.155	 -5.625
120.360	 -4.045	 -5.565
120.364	 -4.035	 -5.480
120.368	 -4.170	 -5.370
120.372	 -4.440	 -5.300
120.376	 -4.845	 -5.310
120.380	 -5.305	 -5.390
120.384	 -5.760	 -5.490
120.388	 -6.110	 -5.550
120.392	 -6.260	 -5.660
120.396	 -6.265	 -5.800
120.400	 -6.265	 -5.930
120.404	 -6.260	 -6.015
120.408	 -6.255	 -6.055
120.412	 -6.220	 -6.055
120.416	 -6.175	 -6.040
120.420	 -6.125	 -6.030
120.424	 -6.095	 -5.990
120.428	 -6.090	 -5.935
120.432	 -6.080	 -5.880
120.436	 -6.075	 -5.835
120.440	 -6.060	 -5.825
120.444	 -6.055	 -5.810
120.448	 -6.050	 -5.800
120.452	 -6.040	 -5.795
120.456	 -6.040	 -5.790
120.460	 -6.050	 -5.795
120.464	 -6.045	 -5.795
120.468	 -6.040	 -5.790
120.472	 -6.040	 -5.795
120.476	 -6.040	 -5.795
120.480	 -6.025	 -5.795
120.484	 -6.015	 -5.795
120.488	 -6.005	 -5.795
120.492	 -5.990	 -5.800
120.496	 -5.975	 -5.805
120.500	 -5.965	 -5.805
120.504	 -5.950	 -5.810
120.508	 -5.920	 -5.805
120.512	 -5.890	 -5.805
120.516	 -5.860	 -5.800
120.520	 -5.825	 -5.800
120.524	 -5.790	 -5.795
120.528	 -5.755	 -5.790
120.532	 -5.710	 -5.785
120.536	 -5.680	 -5.785
120.540	 -5.645	 -5.775
120.544	 -5.620	 -5.770
120.548	 -5.595	 -5.755
120.552	 -5.575	 -5.750
120.556	 -5.560	 -5.740
120.560	 -5.545	 -5.730
120.564	 -5.535	 -5.715
120.568	 -5.525	 -5.705
120.572	 -5.520	 -5.695
120.576	 -5.525	 -5.685
120.580	 -5.525	 -5.680
120.584	 -5.535	 -5.665
120.588	 -5.545	 -5.660
120.592	 -5.560	 -5.645
120.596	 -5.580	 -5.635
120.600	 -5.590	 -5.630
120.604	 -5.610	 -5.620
120.608	 -5.620	 -5.615
120.612	 -5.640	 -5.605
120.616	 -5.655	 -5.610
120.620	 -5.675	 -5.605
120.624	 -5.700	 -5.605
120.628	 -5.725	 -5.605
120.632	 -5.745	 -5.610
120.636	 -5.760	 -5.610
120.640	 -5.780	 -5.610
120.644	 -5.800	 -5.615
120.648	 -5.810	 -5.625
120.652	 -5.820	 -5.630
120.656	 -5.825	 -5.630
120.660	 -5.840	 -5.640
120.664	 -5.850	 -5.645
120.668	 -5.855	 -5.645
120.672	 -5.865	 -5.650
120.676	 -5.870	 -5.650
120.680	 -5.875	 -5.650
120.684	 -5.875	 -5.655
120.688	 -5.875	 -5.655
120.692	 -5.875	 -5.645
120.696	 -5.865	 -5.650
120.700	 -5.860	 -5.645
120.704	 -5.870	 -5.630
120.708	 -5.865	 -5.630
120.712	 -5.860	 -5.625
120.716	 -5.855	 -5.620
120.720	 -5.850	 -5.620
120.724	 -5.850	 -5.610
120.728	 -5.845	 -5.605
120.732	 -5.845	 -5.600
120.736	 -5.840	 -5.595
120.740	 -5.835	 -5.595
120.744	 -5.825	 -5.595
120.748	 -5.810	 -5.585
120.752	 -5.795	 -5.585
120.756	 -5.770	 -5.585
120.760	 -5.745	 -5.585
120.764	 -5.730	 -5.580
120.768	 -5.725	 -5.565
120.772	 -5.730	 -5.555
120.776	 -5.735	 -5.545
120.780	 -5.740	 -5.540
120.784	 -5.735	 -5.545
120.788	 -5.715	 -5.540
120.792	 -5.690	 -5.540
120.796	 -5.680	 -5.540
120.800	 -5.685	 -5.525
120.804	 -5.695	 -5.505
120.808	 -5.690	 -5.495
120.812	 -5.690	 -5.490
120.816	 -5.695	 -5.495
120.820	 -5.700	 -5.505
120.824	 -5.710	 -5.505
120.828	 -5.730	 -5.510
120.832	 -5.750	 -5.520
120.836	 -5.760	 -5.535
120.840	 -5.785	 -5.550
120.844	 -5.805	 -5.560
120.848	 -5.830	 -5.575
120.852	 -5.850	 -5.590
120.856	 -5.860	 -5.610
120.860	 -5.865	 -5.615
120.864	 -5.865	 -5.630
120.868	 -5.870	 -5.640
120.872	 -5.875	 -5.650
120.876	 -5.885	 -5.660
120.880	 -5.885	 -5.670
120.884	 -5.890	 -5.660
120.888	 -5.880	 -5.665
120.892	 -5.880	 -5.665
120.896	 -5.880	 -5.680
120.900	 -5.880	 -5.685
120.904	 -5.890	 -5.685
120.908	 -5.915	 -5.685
120.912	 -5.900	 -5.685
120.916	 -5.820	 -5.695
120.920	 -5.685	 -5.705
120.924	 -5.540	 -5.715
120.928	 -5.320	 -5.665
120.932	 -4.970	 -5.630
120.936	 -4.570	 -5.615
120.940	 -4.240	 -5.605
120.944	 -4.060	 -5.570
120.948	 -4.000	 -5.490
120.952	 -4.050	 -5.390
120.956	 -4.260	 -5.290
120.960	 -4.590	 -5.285
120.964	 -5.020	 -5.340
120.968	 -5.480	 -5.445
120.972	 -5.900	 -5.530
120.976	 -6.180	 -5.605
120.980	 -6.265	 -5.735
120.984	 -6.250	 -5.875
120.988	 -6.240	 -5.980
120.992	 -6.240	 -6.035
120.996	 -6.215	 -6.050
121.000	 -6.160	 -6.045
121.004	 -6.105	 -6.025
121.008	 -6.065	 -6.005
121.012	 -6.055	 -5.945
121.016	 -6.050	 -5.880
121.020	 -6.045	 -5.840
121.024	 -6.040	 -5.810
121.028	 -6.040	 -5.800
121.032	 -6.030	 -5.795
121.036	 -6.035	 -5.790
121.040	 -6.030	 -5.785
121.044	 -6.030	 -5.785
121.048	 -6.030	 -5.775
121.052	 -6.025	 -5.775
121.056	 -6.025	 -5.775
121.060	 -6.025	 -5.780
121.064	 -6.015	 -5.780
121.068	 -6.010	 -5.775
121.072	 -6.000	 -5.775
121.076	 -5.990	 -5.775
121.080	 -5.975	 -5.780
121.084	 -5.955	 -5.780
121.088	 -5.935	 -5.785
121.092	 -5.915	 -5.790
121.096	 -5.890	 -5.785
121.100	 -5.865	 -5.785
121.104	 -5.840	 -5.785
121.108	 -5.810	 -5.785
121.112	 -5.775	 -5.785
121.116	 -5.740	 -5.775
121.120	 -5.705	 -5.775
121.124	 -5.670	 -5.770
121.128	 -5.640	 -5.755
121.132	 -5.615	 -5.740
121.136	 -5.595	 -5.730
121.140	 -5.580	 -5.720
121.144	 -5.560	 -5.715
121.148	 -5.540	 -5.705
121.152	 -5.525	 -5.690
121.156	 -5.515	 -5.685
121.160	 -5.505	 -5.675
121.164	 -5.510	 -5.665
121.168	 -5.515	 -5.660
121.172	 -5.525	 -5.645
121.176	 -5.530	 -5.640
121.180	 -5.545	 -5.630
121.184	 -5.565	 -5.620
121.188	 -5.585	 -5.615
121.192	 -5.605	 -5.600
121.196	 -5.620	 -5.600
121.200	 -5.640	 -5.600
121.204	 -5.655	 -5.595
121.208	 -5.680	 -5.600
121.212	 -5.695	 -5.595
121.216	 -5.715	 -5.600
121.220	 -5.730	 -5.605
121.224	 -5.745	 -5.610
121.228	 -5.760	 -5.615
121.232	 -5.770	 -5.620
121.236	 -5.785	 -5.625
121.240	 -5.800	 -5.630
121.244	 -5.820	 -5.645
121.248	 -5.825	 -5.645
121.252	 -5.840	 -5.645
121.256	 -5.845	 -5.645
121.260	 -5.850	 -5.650
121.264	 -5.855	 -5.660
121.268	 -5.865	 -5.660
121.272	 -5.860	 -5.660
121.276	 -5.865	 -5.655
121.280	 -5.865	 -5.655
121.284	 -5.865	 -5.655
121.288	 -5.860	 -5.650
121.292	 -5.860	 -5.645
121.296	 -5.855	 -5.645
121.300	 -5.850	 -5.640
121.304	 -5.840	 -5.630
121.308	 -5.840	 -5.625
121.312	 -5.835	 -5.620
121.316	 -5.835	 -5.615
121.320	 -5.830	 -5.610
121.324	 -5.830	 -5.600
121.328	 -5.825	 -5.595
121.332	 -5.825	 -5.590
121.336	 -5.820	 -5.590
121.340	 -5.815	 -5.585
121.344	 -5.800	 -5.585
121.348	 -5.785	 -5.580
121.352	 -5.770	 -5.580
121.356	 -5.750	 -5.575
121.360	 -5.735	 -5.570
121.364	 -5.725	 -5.560
121.368	 -5.730	 -5.555
121.372	 -5.730	 -5.555
121.376	 -5.720	 -5.560
121.380	 -5.705	 -5.560
121.384	 -5.685	 -5.560
121.388	 -5.660	 -5.560
121.392	 -5.660	 -5.550
121.396	 -5.670	 -5.535
121.400	 -5.665	 -5.520
121.404	 -5.675	 -5.515
121.408	 -5.675	 -5.520
121.412	 -5.685	 -5.525
121.416	 -5.700	 -5.535
121.420	 -5.720	 -5.540
121.424	 -5.735	 -5.555
121.428	 -5.750	 -5.560
121.432	 -5.775	 -5.580
121.436	 -5.790	 -5.595
121.440	 -5.810	 -5.605
121.444	 -5.835	 -5.615
121.448	 -5.850	 -5.625
121.452	 -5.860	 -5.630
121.456	 -5.860	 -5.645
121.460	 -5.860	 -5.660
121.464	 -5.860	 -5.675
121.468	 -5.865	 -5.685
121.472	 -5.865	 -5.690
121.476	 -5.860	 -5.695
121.480	 -5.860	 -5.700
121.484	 -5.860	 -5.705
121.488	 -5.855	 -5.705
121.492	 -5.855	 -5.700
121.496	 -5.870	 -5.705
121.500	 -5.895	 -5.710
121.504	 -5.875	 -5.715
121.508	 -5.785	 -5.720
121.512	 -5.655	 -5.730
121.516	 -5.505	 -5.735
121.520	 -5.275	 -5.690
121.524	 -4.920	 -5.645
121.528	 -4.520	 -5.630
121.532	 -4.220	 -5.620
121.536	 -4.075	 -5.565
121.540	 -4.045	 -5.485
121.544	 -4.155	 -5.375
121.548	 -4.395	 -5.290
121.552	 -4.755	 -5.315
121.556	 -5.200	 -5.405
121.560	 -5.655	 -5.515
121.564	 -6.025	 -5.585
121.568	 -6.225	 -5.685
121.572	 -6.250	 -5.835
121.576	 -6.240	 -5.985
121.580	 -6.235	 -6.070
121.584	 -6.220	 -6.110
121.588	 -6.175	 -6.110
121.592	 -6.115	 -6.090
121.596	 -6.055	 -6.070
121.600	 -6.025	 -6.025
121.604	 -6.020	 -5.950
121.608	 -6.015	 -5.885
121.612	 -6.000	 -5.850
121.616	 -6.000	 -5.835
121.620	 -5.995	 -5.825
121.624	 -5.990	 -5.825
121.628	 -5.990	 -5.815
121.632	 -5.980	 -5.805
121.636	 -5.980	 -5.805
121.640	 -5.980	 -5.800
121.644	 -5.970	 -5.800
121.648	 -5.965	 -5.795
121.652	 -5.960	 -5.795
121.656	 -5.960	 -5.795
121.660	 -5.960	 -5.800
121.664	 -5.955	 -5.805
121.668	 -5.950	 -5.800
121.672	 -5.935	 -5.805
121.676	 -5.910	 -5.805
121.680	 -5.890	 -5.810
121.684	 -5.870	 -5.810
121.688	 -5.840	 -5.810
121.692	 -5.810	 -5.805
121.696	 -5.775	 -5.805
121.700	 -5.740	 -5.810
121.704	 -5.710	 -5.800
121.708	 -5.670	 -5.795
121.712	 -5.635	 -5.780
121.716	 -5.610	 -5.775
121.720	 -5.575	 -5.770
121.724	 -5.550	 -5.760
121.728	 -5.525	 -5.745
121.732	 -5.505	 -5.735
121.736	 -5.485	 -5.720
121.740	 -5.475	 -5.710
121.744	 -5.465	 -5.700
121.748	 -5.460	 -5.685
121.752	 -5.465	 -5.675
121.756	 -5.460	 -5.665
121.760	 -5.470	 -5.655
121.764	 -5.480	 -5.645
121.768	 -5.490	 -5.635
121.772	 -5.500	 -5.625
121.776	 -5.515	 -5.620
121.780	 -5.535	 -5.615
121.784	 -5.560	 -5.615
121.788	 -5.580	 -5.610
121.792	 -5.600	 -5.615
121.796	 -5.625	 -5.625
121.800	 -5.640	 -5.630
121.804	 -5.665	 -5.630
121.808	 -5.685	 -5.640
121.812	 -5.705	 -5.640
121.816	 -5.720	 -5.650
121.820	 -5.735	 -5.655
121.824	 -5.750	 -5.660
121.828	 -5.760	 -5.660
121.832	 -5.765	 -5.665
121.836	 -5.775	 -5.680
121.840	 -5.780	 -5.685
121.844	 -5.790	 -5.685
121.848	 -5.795	 -5.685
121.852	 -5.800	 -5.685
121.856	 -5.810	 -5.690
121.860	 -5.810	 -5.695
121.864	 -5.815	 -5.690
121.868	 -5.820	 -5.690
121.872	 -5.825	 -5.695
121.876	 -5.830	 -5.695
121.880	 -5.820	 -5.695
121.884	 -5.830	 -5.685
121.888	 -5.825	 -5.685
121.892	 -5.820	 -5.680
121.896	 -5.820	 -5.675
121.900	 -5.815	 -5.665
121.904	 -5.810	 -5.660
121.908	 -5.800	 -5.650
121.912	 -5.800	 -5.650
121.916	 -5.800	 -5.645
121.920	 -5.795	 -5.640
121.924	 -5.790	 -5.630
121.928	 -5.785	 -5.630
121.932	 -5.770	 -5.625
121.936	 -5.760	 -5.620
121.940	 -5.740	 -5.620
121.944	 -5.730	 -5.615
121.948	 -5.730	 -5.605
121.952	 -5.720	 -5.595
121.956	 -5.720	 -5.585
121.960	 -5.725	 -5.585
121.964	 -5.720	 -5.585
121.968	 -5.710	 -5.585
121.972	 -5.690	 -5.590
121.976	 -5.660	 -5.590
121.980	 -5.650	 -5.580
121.984	 -5.655	 -5.560
121.988	 -5.660	 -5.540
121.992	 -5.650	 -5.540
121.996	 -5.645	 -5.560
122.000	 -5.655	 -5.560
122.004	 -5.670	 -5.570
122.008	 -5.690	 -5.580
122.012	 -5.715	 -5.590
122.016	 -5.730	 -5.600
122.020	 -5.750	 -5.615
122.024	 -5.765	 -5.635
122.028	 -5.785	 -5.640
122.032	 -5.805	 -5.645
122.036	 -5.820	 -5.655
122.040	 -5.825	 -5.665
122.044	 -5.830	 -5.680
122.048	 -5.825	 -5.695
122.052	 -5.835	 -5.710
122.056	 -5.840	 -5.715
122.060	 -5.840	 -5.720
122.064	 -5.840	 -5.720
122.068	 -5.840	 -5.730
122.072	 -5.845	 -5.730
122.076	 -5.845	 -5.730
122.080	 -5.855	 -5.730
122.084	 -5.860	 -5.735
122.088	 -5.880	 -5.735
122.092	 -5.885	 -5.735
122.096	 -5.820	 -5.745
122.100	 -5.695	 -5.755
122.104	 -5.550	 -5.765
122.108	 -5.360	 -5.730
122.112	 -5.045	 -5.680
122.116	 -4.645	 -5.660
122.120	 -4.295	 -5.660
122.124	 -4.095	 -5.620
122.128	 -4.040	 -5.535
122.132	 -4.110	 -5.430
122.136	 -4.340	 -5.335
122.140	 -4.650	 -5.335
122.144	 -5.060	 -5.395
122.148	 -5.515	 -5.505
122.152	 -5.925	 -5.580
122.156	 -6.180	 -5.660
122.160	 -6.270	 -5.805
122.164	 -6.265	 -5.970
122.168	 -6.255	 -6.080
122.172	 -6.250	 -6.135
122.176	 -6.220	 -6.150
122.180	 -6.160	 -6.140
122.184	 -6.100	 -6.130
122.188	 -6.050	 -6.080
122.192	 -6.035	 -6.005
122.196	 -6.020	 -5.930
122.200	 -6.010	 -5.880
122.204	 -6.000	 -5.865
122.208	 -6.000	 -5.855
122.212	 -5.995	 -5.845
122.216	 -5.995	 -5.840
122.220	 -5.995	 -5.835
122.224	 -5.990	 -5.830
122.228	 -5.990	 -5.825
122.232	 -5.985	 -5.825
122.236	 -5.980	 -5.830
122.240	 -5.980	 -5.830
122.244	 -5.980	 -5.825
122.248	 -5.965	 -5.825
122.252	 -5.955	 -5.830
122.256	 -5.935	 -5.830
122.260	 -5.920	 -5.830
122.264	 -5.905	 -5.830
122.268	 -5.885	 -5.825
122.272	 -5.865	 -5.825
122.276	 -5.840	 -5.825
122.280	 -5.815	 -5.825
122.284	 -5.785	 -5.815
122.288	 -5.760	 -5.810
122.292	 -5.725	 -5.810
122.296	 -5.690	 -5.810
122.300	 -5.655	 -5.800
122.304	 -5.625	 -5.790
122.308	 -5.600	 -5.780
122.312	 -5.575	 -5.770
122.316	 -5.540	 -5.755
122.320	 -5.520	 -5.745
122.324	 -5.500	 -5.730
122.328	 -5.485	 -5.725
122.332	 -5.480	 -5.715
122.336	 -5.470	 -5.705
122.340	 -5.465	 -5.695
122.344	 -5.470	 -5.685
122.348	 -5.480	 -5.665
122.352	 -5.485	 -5.660
122.356	 -5.500	 -5.650
122.360	 -5.520	 -5.640
122.364	 -5.540	 -5.630
122.368	 -5.565	 -5.625
122.372	 -5.595	 -5.625
122.376	 -5.615	 -5.625
122.380	 -5.625	 -5.625
122.384	 -5.645	 -5.625
122.388	 -5.670	 -5.625
122.392	 -5.690	 -5.630
122.396	 -5.705	 -5.640
122.400	 -5.720	 -5.645
122.404	 -5.735	 -5.645
122.408	 -5.745	 -5.650
122.412	 -5.760	 -5.660
122.416	 -5.775	 -5.665
122.420	 -5.785	 -5.680
122.424	 -5.790	 -5.685
122.428	 -5.800	 -5.685
122.432	 -5.805	 -5.695
122.436	 -5.815	 -5.700
122.440	 -5.820	 -5.705
122.444	 -5.825	 -5.705
122.448	 -5.835	 -5.705
122.452	 -5.840	 -5.710
122.456	 -5.840	 -5.710
122.460	 -5.840	 -5.705
122.464	 -5.840	 -5.700
122.468	 -5.840	 -5.695
122.472	 -5.840	 -5.695
122.476	 -5.840	 -5.695
122.480	 -5.840	 -5.685
122.484	 -5.840	 -5.680
122.488	 -5.835	 -5.675
122.492	 -5.830	 -5.670
122.496	 -5.830	 -5.660
122.500	 -5.825	 -5.660
122.504	 -5.825	 -5.650
122.508	 -5.825	 -5.650
122.512	 -5.820	 -5.645
122.516	 -5.805	 -5.645
122.520	 -5.800	 -5.630
122.524	 -5.795	 -5.630
122.528	 -5.780	 -5.630
122.532	 -5.775	 -5.625
122.536	 -5.760	 -5.630
122.540	 -5.745	 -5.625
122.544	 -5.745	 -5.605
122.548	 -5.730	 -5.600
122.552	 -5.735	 -5.595
122.556	 -5.740	 -5.600
122.560	 -5.730	 -5.595
122.564	 -5.715	 -5.595
122.568	 -5.695	 -5.595
122.572	 -5.680	 -5.595
122.576	 -5.680	 -5.595
122.580	 -5.690	 -5.570
122.584	 -5.690	 -5.550
122.588	 -5.690	 -5.550
122.592	 -5.695	 -5.560
122.596	 -5.710	 -5.560
122.600	 -5.720	 -5.565
122.604	 -5.735	 -5.575
122.608	 -5.750	 -5.585
122.612	 -5.765	 -5.600
122.616	 -5.775	 -5.620
122.620	 -5.790	 -5.625
122.624	 -5.810	 -5.640
122.628	 -5.830	 -5.645
122.632	 -5.840	 -5.655
122.636	 -5.845	 -5.665
122.640	 -5.855	 -5.685
122.644	 -5.860	 -5.700
122.648	 -5.860	 -5.705
122.652	 -5.860	 -5.715
122.656	 -5.875	 -5.715
122.660	 -5.895	 -5.720
122.664	 -5.905	 -5.720
122.668	 -5.930	 -5.730
122.672	 -5.945	 -5.745
122.676	 -5.945	 -5.770
122.680	 -5.930	 -5.790
122.684	 -5.850	 -5.810
122.688	 -5.720	 -5.820
122.692	 -5.520	 -5.810
122.696	 -5.305	 -5.765
122.700	 -5.055	 -5.650
122.704	 -4.715	 -5.520
122.708	 -4.340	 -5.430
122.712	 -4.065	 -5.365
122.716	 -3.955	 -5.280
122.720	 -3.930	 -5.165
122.724	 -3.975	 -5.040
122.728	 -4.185	 -4.935
122.732	 -4.560	 -4.915
122.736	 -5.040	 -4.985
122.740	 -5.505	 -5.180
122.744	 -5.920	 -5.345
122.748	 -6.160	 -5.480
122.752	 -6.245	 -5.630
122.756	 -6.250	 -5.770
122.760	 -6.240	 -5.895
122.764	 -6.225	 -5.970
122.768	 -6.200	 -6.005
122.772	 -6.175	 -6.005
122.776	 -6.145	 -6.000
122.780	 -6.115	 -5.980
122.784	 -6.095	 -5.950
122.788	 -6.095	 -5.930
122.792	 -6.095	 -5.915
122.796	 -6.095	 -5.895
122.800	 -6.095	 -5.880
122.804	 -6.100	 -5.880
122.808	 -6.100	 -5.880
122.812	 -6.095	 -5.880
122.816	 -6.095	 -5.885
122.820	 -6.100	 -5.890
122.824	 -6.105	 -5.890
122.828	 -6.105	 -5.895
122.832	 -6.115	 -5.900
122.836	 -6.105	 -5.905
122.840	 -6.100	 -5.920
122.844	 -6.095	 -5.925
122.848	 -6.090	 -5.935
122.852	 -6.080	 -5.940
122.856	 -6.075	 -5.950
122.860	 -6.065	 -5.955
122.864	 -6.060	 -5.965
122.868	 -6.035	 -5.970
122.872	 -6.015	 -5.980
122.876	 -6.000	 -5.985
122.880	 -5.975	 -5.990
122.884	 -5.955	 -5.990
122.888	 -5.920	 -5.990
122.892	 -5.890	 -5.990
122.896	 -5.865	 -5.985
122.900	 -5.830	 -5.985
122.904	 -5.805	 -5.970
122.908	 -5.775	 -5.965
122.912	 -5.750	 -5.955
122.916	 -5.725	 -5.945
122.920	 -5.705	 -5.930
122.924	 -5.695	 -5.915
122.928	 -5.680	 -5.900
122.932	 -5.670	 -5.880
122.936	 -5.655	 -5.860
122.940	 -5.640	 -5.835
122.944	 -5.635	 -5.810
122.948	 -5.635	 -5.790
122.952	 -5.640	 -5.770
122.956	 -5.640	 -5.750
122.960	 -5.640	 -5.730
122.964	 -5.650	 -5.710
122.968	 -5.660	 -5.690
122.972	 -5.680	 -5.675
122.976	 -5.700	 -5.660
122.980	 -5.710	 -5.655
122.984	 -5.710	 -5.645
122.988	 -5.715	 -5.640
122.992	 -5.720	 -5.630
122.996	 -5.730	 -5.625
123.000	 -5.735	 -5.620
123.004	 -5.740	 -5.620
123.008	 -5.770	 -5.620
123.012	 -5.780	 -5.620
123.016	 -5.775	 -5.620
123.020	 -5.780	 -5.620
123.024	 -5.790	 -5.625
123.028	 -5.785	 -5.630
123.032	 -5.790	 -5.635
123.036	 -5.800	 -5.645
123.040	 -5.810	 -5.635
123.044	 -5.815	 -5.635
123.048	 -5.800	 -5.635
123.052	 -5.805	 -5.630
123.056	 -5.815	 -5.640
123.060	 -5.820	 -5.640
123.064	 -5.820	 -5.645
123.068	 -5.820	 -5.640
123.072	 -5.825	 -5.645
123.076	 -5.820	 -5.645
123.080	 -5.830	 -5.645
123.084	 -5.830	 -5.640
123.088	 -5.820	 -5.645
123.092	 -5.810	 -5.640
123.096	 -5.815	 -5.640
123.100	 -5.820	 -5.635
123.104	 -5.820	 -5.630
123.108	 -5.815	 -5.625
123.112	 -5.815	 -5.630
123.116	 -5.800	 -5.625
123.120	 -5.790	 -5.625
123.124	 -5.780	 -5.625
123.128	 -5.770	 -5.625
123.132	 -5.760	 -5.625
123.136	 -5.755	 -5.620
123.140	 -5.760	 -5.620
123.144	 -5.765	 -5.610
123.148	 -5.760	 -5.600
123.152	 -5.760	 -5.595
123.156	 -5.750	 -5.595
123.160	 -5.740	 -5.595
123.164	 -5.720	 -5.595
123.168	 -5.700	 -5.595
123.172	 -5.690	 -5.585
123.176	 -5.695	 -5.560
123.180	 -5.700	 -5.540
123.184	 -5.695	 -5.530
123.188	 -5.700	 -5.535
123.192	 -5.710	 -5.540
123.196	 -5.710	 -5.540
123.200	 -5.720	 -5.540
123.204	 -5.735	 -5.550
123.208	 -5.755	 -5.560
123.212	 -5.775	 -5.575
123.216	 -5.790	 -5.595
123.220	 -5.800	 -5.600
123.224	 -5.825	 -5.620
123.228	 -5.840	 -5.625
123.232	 -5.845	 -5.635
123.236	 -5.850	 -5.645
123.240	 -5.860	 -5.660
123.244	 -5.875	 -5.670
123.248	 -5.865	 -5.680
123.252	 -5.860	 -5.685
123.256	 -5.855	 -5.695
123.260	 -5.840	 -5.695
123.264	 -5.840	 -5.695
123.268	 -5.840	 -5.700
123.272	 -5.840	 -5.705
123.276	 -5.835	 -5.705
123.280	 -5.855	 -5.705
123.284	 -5.855	 -5.710
123.288	 -5.815	 -5.715
123.292	 -5.695	 -5.730
123.296	 -5.555	 -5.740
123.300	 -5.345	 -5.710
123.304	 -5.015	 -5.665
123.308	 -4.620	 -5.645
123.312	 -4.265	 -5.635
123.316	 -4.055	 -5.595
123.320	 -3.985	 -5.515
123.324	 -4.000	 -5.415
123.328	 -4.175	 -5.315
123.332	 -4.455	 -5.290
123.336	 -4.870	 -5.325
123.340	 -5.320	 -5.425
123.344	 -5.775	 -5.500
123.348	 -6.100	 -5.565
123.352	 -6.245	 -5.695
123.356	 -6.245	 -5.835
123.360	 -6.245	 -5.950
123.364	 -6.245	 -6.025
123.368	 -6.245	 -6.060
123.372	 -6.210	 -6.060
123.376	 -6.155	 -6.055
123.380	 -6.105	 -6.035
123.384	 -6.070	 -5.990
123.388	 -6.065	 -5.935
123.392	 -6.060	 -5.880
123.396	 -6.045	 -5.835
123.400	 -6.020	 -5.815
123.404	 -6.010	 -5.810
123.408	 -6.005	 -5.805
123.412	 -6.015	 -5.795
123.416	 -6.015	 -5.790
123.420	 -6.010	 -5.790
123.424	 -6.010	 -5.790
123.428	 -6.010	 -5.790
123.432	 -6.010	 -5.785
123.436	 -6.000	 -5.785
123.440	 -5.985	 -5.785
123.444	 -5.980	 -5.785
123.448	 -5.975	 -5.790
123.452	 -5.960	 -5.790
123.456	 -5.960	 -5.795
123.460	 -5.940	 -5.795
123.464	 -5.905	 -5.795
123.468	 -5.875	 -5.795
123.472	 -5.865	 -5.795
123.476	 -5.825	 -5.795
123.480	 -5.770	 -5.795
123.484	 -5.730	 -5.790
123.488	 -5.690	 -5.780
123.492	 -5.655	 -5.775
123.496	 -5.620	 -5.770
123.500	 -5.610	 -5.765
123.504	 -5.585	 -5.755
123.508	 -5.570	 -5.740
123.512	 -5.550	 -5.730
123.516	 -5.520	 -5.720
123.520	 -5.485	 -5.710
123.524	 -5.465	 -5.695
123.528	 -5.460	 -5.685
123.532	 -5.465	 -5.675
123.536	 -5.480	 -5.665
123.540	 -5.500	 -5.655
123.544	 -5.520	 -5.645
123.548	 -5.530	 -5.630
123.552	 -5.550	 -5.630
123.556	 -5.565	 -5.625
123.560	 -5.575	 -5.625
123.564	 -5.595	 -5.610
123.568	 -5.610	 -5.605
123.572	 -5.635	 -5.605
123.576	 -5.660	 -5.610
123.580	 -5.695	 -5.600
123.584	 -5.720	 -5.600
123.588	 -5.725	 -5.610
123.592	 -5.750	 -5.615
123.596	 -5.760	 -5.615
123.600	 -5.775	 -5.615
123.604	 -5.785	 -5.620
123.608	 -5.800	 -5.630
123.612	 -5.800	 -5.645
123.616	 -5.810	 -5.645
123.620	 -5.810	 -5.645
123.624	 -5.825	 -5.655
123.628	 -5.845	 -5.655
123.632	 -5.865	 -5.660
123.636	 -5.870	 -5.660
123.640	 -5.860	 -5.660
123.644	 -5.870	 -5.660
123.648	 -5.865	 -5.665
123.652	 -5.875	 -5.665
123.656	 -5.870	 -5.665
123.660	 -5.875	 -5.665
123.664	 -5.880	 -5.660
123.668	 -5.870	 -5.660
123.672	 -5.860	 -5.660
123.676	 -5.850	 -5.655
123.680	 -5.845	 -5.645
123.684	 -5.840	 -5.645
123.688	 -5.830	 -5.640
123.692	 -5.820	 -5.635
123.696	 -5.810	 -5.630
123.700	 -5.810	 -5.625
123.704	 -5.805	 -5.615
123.708	 -5.805	 -5.610
123.712	 -5.800	 -5.610
123.716	 -5.800	 -5.605
123.720	 -5.795	 -5.600
123.724	 -5.785	 -5.595
123.728	 -5.760	 -5.590
123.732	 -5.750	 -5.590
123.736	 -5.750	 -5.580
123.740	 -5.745	 -5.560
123.744	 -5.755	 -5.560
123.748	 -5.755	 -5.560
123.752	 -5.740	 -5.555
123.756	 -5.720	 -5.560
123.760	 -5.705	 -5.555
123.764	 -5.690	 -5.550
123.768	 -5.690	 -5.540
123.772	 -5.700	 -5.520
123.776	 -5.715	 -5.505
123.780	 -5.715	 -5.505
123.784	 -5.715	 -5.515
123.788	 -5.720	 -5.515
123.792	 -5.740	 -5.520
123.796	 -5.760	 -5.530
123.800	 -5.780	 -5.540
123.804	 -5.795	 -5.540
123.808	 -5.815	 -5.565
123.812	 -5.835	 -5.580
123.816	 -5.860	 -5.595
123.820	 -5.890	 -5.605
123.824	 -5.890	 -5.615
123.828	 -5.880	 -5.630
123.832	 -5.885	 -5.645
123.836	 -5.885	 -5.660
123.840	 -5.890	 -5.670
123.844	 -5.895	 -5.670
123.848	 -5.885	 -5.670
123.852	 -5.885	 -5.675
123.856	 -5.880	 -5.680
123.860	 -5.875	 -5.680
123.864	 -5.870	 -5.680
123.868	 -5.880	 -5.680
123.872	 -5.895	 -5.685
123.876	 -5.900	 -5.685
123.880	 -5.855	 -5.690
123.884	 -5.735	 -5.700
123.888	 -5.595	 -5.720
123.892	 -5.400	 -5.700
123.896	 -5.105	 -5.660
123.900	 -4.710	 -5.630
123.904	 -4.340	 -5.625
123.908	 -4.105	 -5.595
123.912	 -4.010	 -5.520
123.916	 -4.020	 -5.430
123.920	 -4.200	 -5.320
123.924	 -4.505	 -5.285
123.928	 -4.935	 -5.325
123.932	 -5.395	 -5.430
123.936	 -5.840	 -5.515
123.940	 -6.150	 -5.595
123.944	 -6.250	 -5.715
123.948	 -6.240	 -5.855
123.952	 -6.240	 -5.950
123.956	 -6.235	 -6.005
123.960	 -6.215	 -6.020
123.964	 -6.170	 -6.015
123.968	 -6.120	 -6.005
123.972	 -6.085	 -5.985
123.976	 -6.075	 -5.940
123.980	 -6.065	 -5.880
123.984	 -6.060	 -5.840
123.988	 -6.055	 -5.815
123.992	 -6.055	 -5.805
123.996	 -6.055	 -5.800
124.000	 -6.050	 -5.785
124.004	 -6.045	 -5.780
124.008	 -6.035	 -5.790
124.012	 -6.030	 -5.785
124.016	 -6.025	 -5.785
124.020	 -6.015	 -5.785
124.024	 -6.015	 -5.790
124.028	 -6.005	 -5.785
124.032	 -6.000	 -5.795
124.036	 -5.990	 -5.795
124.040	 -5.990	 -5.795
124.044	 -5.970	 -5.790
124.048	 -5.955	 -5.790
124.052	 -5.940	 -5.795
124.056	 -5.915	 -5.795
124.060	 -5.885	 -5.795
124.064	 -5.865	 -5.795
124.068	 -5.840	 -5.795
124.072	 -5.800	 -5.795
124.076	 -5.765	 -5.790
124.080	 -5.725	 -5.775
124.084	 -5.680	 -5.770
124.088	 -5.635	 -5.770
124.092	 -5.615	 -5.765
124.096	 -5.580	 -5.755
124.100	 -5.560	 -5.745
124.104	 -5.545	 -5.740
124.108	 -5.520	 -5.730
124.112	 -5.515	 -5.720
124.116	 -5.505	 -5.715
124.120	 -5.510	 -5.705
124.124	 -5.505	 -5.690
124.128	 -5.500	 -5.685
124.132	 -5.510	 -5.685
124.136	 -5.520	 -5.665
124.140	 -5.540	 -5.660
124.144	 -5.550	 -5.645
124.148	 -5.565	 -5.640
124.152	 -5.580	 -5.640
124.156	 -5.600	 -5.630
124.160	 -5.620	 -5.630
124.164	 -5.640	 -5.630
124.168	 -5.665	 -5.630
124.172	 -5.690	 -5.630
124.176	 -5.710	 -5.630
124.180	 -5.725	 -5.630
124.184	 -5.740	 -5.630
124.188	 -5.755	 -5.640
124.192	 -5.765	 -5.645
124.196	 -5.775	 -5.655
124.200	 -5.780	 -5.655
124.204	 -5.790	 -5.660
124.208	 -5.800	 -5.670
124.212	 -5.810	 -5.680
124.216	 -5.815	 -5.680
124.220	 -5.810	 -5.685
124.224	 -5.815	 -5.685
124.228	 -5.820	 -5.685
124.232	 -5.835	 -5.695
124.236	 -5.835	 -5.690
124.240	 -5.835	 -5.695
124.244	 -5.835	 -5.695
124.248	 -5.835	 -5.695
124.252	 -5.830	 -5.690
124.256	 -5.825	 -5.685
124.260	 -5.820	 -5.680
124.264	 -5.810	 -5.675
124.268	 -5.810	 -5.665
124.272	 -5.805	 -5.665
124.276	 -5.805	 -5.660
124.280	 -5.800	 -5.655
124.284	 -5.795	 -5.645
124.288	 -5.785	 -5.645
124.292	 -5.770	 -5.635
124.296	 -5.760	 -5.630
124.300	 -5.760	 -5.625
124.304	 -5.760	 -5.630
124.308	 -5.745	 -5.630
124.312	 -5.735	 -5.630
124.316	 -5.725	 -5.625
124.320	 -5.715	 -5.625
124.324	 -5.695	 -5.625
124.328	 -5.685	 -5.625
124.332	 -5.680	 -5.615
124.336	 -5.680	 -5.605
124.340	 -5.680	 -5.600
124.344	 -5.680	 -5.600
124.348	 -5.670	 -5.600
124.352	 -5.650	 -5.600
124.356	 -5.630	 -5.600
124.360	 -5.625	 -5.595
124.364	 -5.635	 -5.580
124.368	 -5.635	 -5.560
124.372	 -5.635	 -5.555
124.376	 -5.635	 -5.560
124.380	 -5.640	 -5.560
124.384	 -5.660	 -5.570
124.388	 -5.680	 -5.575
124.392	 -5.700	 -5.585
124.396	 -5.715	 -5.595
124.400	 -5.725	 -5.610
124.404	 -5.740	 -5.630
124.408	 -5.760	 -5.635
124.412	 -5.780	 -5.645
124.416	 -5.795	 -5.650
124.420	 -5.805	 -5.660
124.424	 -5.825	 -5.670
124.428	 -5.845	 -5.690
124.432	 -5.865	 -5.710
124.436	 -5.895	 -5.730
124.440	 -5.920	 -5.745
124.444	 -5.925	 -5.770
124.448	 -5.885	 -5.795
124.452	 -5.805	 -5.815
124.456	 -5.705	 -5.835
124.460	 -5.580	 -5.835
124.464	 -5.425	 -5.805
124.468	 -5.230	 -5.750
124.472	 -4.970	 -5.700
124.476	 -4.650	 -5.640
124.480	 -4.360	 -5.560
124.484	 -4.140	 -5.415
124.488	 -4.000	 -5.215
124.492	 -3.940	 -5.015
124.496	 -3.960	 -4.835
124.500	 -4.075	 -4.665
124.504	 -4.340	 -4.530
124.508	 -4.800	 -4.425
124.512	 -5.270	 -4.375
124.516	 -5.640	 -4.370
124.520	 -5.835	 -4.470
124.524	 -6.005	 -4.665
124.528	 -6.130	 -4.955
124.532	 -6.200	 -5.155
124.536	 -6.215	 -5.325
124.540	 -6.165	 -5.520
124.544	 -6.075	 -5.695
124.548	 -6.025	 -5.825
124.552	 -6.005	 -5.895
124.556	 -6.005	 -5.915
124.560	 -6.005	 -5.930
124.564	 -6.005	 -5.945
124.568	 -6.005	 -5.970
124.572	 -6.015	 -5.985
124.576	 -6.015	 -6.000
124.580	 -6.020	 -6.005
124.584	 -6.025	 -6.025
124.588	 -6.035	 -6.035
124.592	 -6.045	 -6.050
124.596	 -6.045	 -6.060
124.600	 -6.050	 -6.075
124.604	 -6.050	 -6.085
124.608	 -6.055	 -6.095
124.612	 -6.060	 -6.110
124.616	 -6.065	 -6.130
124.620	 -6.065	 -6.145
124.624	 -6.070	 -6.165
124.628	 -6.070	 -6.185
124.632	 -6.065	 -6.215
124.636	 -6.065	 -6.230
124.640	 -6.055	 -6.255
124.644	 -6.045	 -6.285
124.648	 -6.035	 -6.310
124.652	 -6.010	 -6.330
124.656	 -5.990	 -6.355
124.660	 -5.965	 -6.380
124.664	 -5.935	 -6.400
124.668	 -5.905	 -6.415
124.672	 -5.880	 -6.430
124.676	 -5.850	 -6.435
124.680	 -5.825	 -6.435
124.684	 -5.795	 -6.435
124.688	 -5.760	 -6.430
124.692	 -5.735	 -6.410
124.696	 -5.700	 -6.400
124.700	 -5.680	 -6.380
124.704	 -5.660	 -6.355
124.708	 -5.640	 -6.325
124.712	 -5.635	 -6.285
124.716	 -5.625	 -6.245
124.720	 -5.625	 -6.205
124.724	 -5.615	 -6.160
124.728	 -5.610	 -6.115
124.732	 -5.615	 -6.075
124.736	 -5.615	 -6.025
124.740	 -5.620	 -5.985
124.744	 -5.615	 -5.945
124.748	 -5.625	 -5.905
124.752	 -5.630	 -5.870
124.756	 -5.635	 -5.840
124.760	 -5.640	 -5.815
124.764	 -5.655	 -5.795
124.768	 -5.660	 -5.770
124.772	 -5.670	 -5.755
124.776	 -5.680	 -5.740
124.780	 -5.690	 -5.720
124.784	 -5.700	 -5.720
124.788	 -5.715	 -5.710
124.792	 -5.720	 -5.705
124.796	 -5.735	 -5.695
124.800	 -5.740	 -5.690
124.804	 -5.750	 -5.685
124.808	 -5.755	 -5.685
124.812	 -5.760	 -5.680
124.816	 -5.765	 -5.675
124.820	 -5.775	 -5.665
124.824	 -5.785	 -5.665
124.828	 -5.795	 -5.665
124.832	 -5.800	 -5.660
124.836	 -5.800	 -5.660
124.840	 -5.800	 -5.660
124.844	 -5.800	 -5.665
124.848	 -5.800	 -5.660
124.852	 -5.800	 -5.660
124.856	 -5.800	 -5.660
124.860	 -5.795	 -5.660
124.864	 -5.795	 -5.660
124.868	 -5.790	 -5.660
124.872	 -5.785	 -5.660
124.876	 -5.785	 -5.660
124.880	 -5.780	 -5.655
124.884	 -5.780	 -5.655
124.888	 -5.770	 -5.660
124.892	 -5.770	 -5.655
124.896	 -5.760	 -5.655
124.900	 -5.755	 -5.655
124.904	 -5.740	 -5.660
124.908	 -5.730	 -5.650
124.912	 -5.720	 -5.655
124.916	 -5.705	 -5.650
124.920	 -5.695	 -5.645
124.924	 -5.690	 -5.645
124.928	 -5.690	 -5.625
124.932	 -5.700	 -5.620
124.936	 -5.690	 -5.610
124.940	 -5.680	 -5.610
124.944	 -5.655	 -5.605
124.948	 -5.635	 -5.600
124.952	 -5.620	 -5.590
124.956	 -5.625	 -5.570
124.960	 -5.630	 -5.555
124.964	 -5.630	 -5.540
124.968	 -5.630	 -5.550
124.972	 -5.635	 -5.560
124.976	 -5.645	 -5.555
124.980	 -5.665	 -5.560
124.984	 -5.685	 -5.575
124.988	 -5.700	 -5.580
124.992	 -5.725	 -5.595
124.996	 -5.750	 -5.610
125.000	 -5.760	 -5.620
125.004	 -5.790	 -5.625
125.008	 -5.805	 -5.635
125.012	 -5.810	 -5.640
125.016	 -5.810	 -5.650
125.020	 -5.815	 -5.660
125.024	 -5.815	 -5.675
125.028	 -5.815	 -5.680
125.032	 -5.810	 -5.685
125.036	 -5.805	 -5.685
125.040	 -5.800	 -5.685
125.044	 -5.800	 -5.690
125.048	 -5.805	 -5.690
125.052	 -5.805	 -5.690
125.056	 -5.805	 -5.690
125.060	 -5.825	 -5.695
125.064	 -5.835	 -5.700
125.068	 -5.785	 -5.705
125.072	 -5.665	 -5.710
125.076	 -5.525	 -5.725
125.080	 -5.360	 -5.700
125.084	 -5.060	 -5.645
125.088	 -4.665	 -5.615
125.092	 -4.300	 -5.605
125.096	 -4.080	 -5.575
125.100	 -4.000	 -5.495
125.104	 -4.040	 -5.390
125.108	 -4.240	 -5.280
125.112	 -4.555	 -5.260
125.116	 -4.965	 -5.325
125.120	 -5.440	 -5.435
125.124	 -5.855	 -5.525
125.128	 -6.115	 -5.610
125.132	 -6.190	 -5.755
125.136	 -6.180	 -5.925
125.140	 -6.180	 -6.030
125.144	 -6.170	 -6.080
125.148	 -6.130	 -6.090
125.152	 -6.070	 -6.085
125.156	 -6.015	 -6.060
125.160	 -5.985	 -6.010
125.164	 -5.980	 -5.935
125.168	 -5.975	 -5.865
125.172	 -5.970	 -5.825
125.176	 -5.970	 -5.810
125.180	 -5.960	 -5.805
125.184	 -5.955	 -5.795
125.188	 -5.955	 -5.790
125.192	 -5.960	 -5.785
125.196	 -5.960	 -5.785
125.200	 -5.960	 -5.780
125.204	 -5.960	 -5.780
125.208	 -5.955	 -5.775
125.212	 -5.950	 -5.770
125.216	 -5.945	 -5.775
125.220	 -5.940	 -5.770
125.224	 -5.930	 -5.775
125.228	 -5.915	 -5.775
125.232	 -5.895	 -5.780
125.236	 -5.880	 -5.780
125.240	 -5.855	 -5.785
125.244	 -5.825	 -5.775
125.248	 -5.795	 -5.770
125.252	 -5.760	 -5.770
125.256	 -5.730	 -5.765
125.260	 -5.695	 -5.760
125.264	 -5.660	 -5.755
125.268	 -5.625	 -5.750
125.272	 -5.590	 -5.735
125.276	 -5.560	 -5.730
125.280	 -5.535	 -5.720
125.284	 -5.515	 -5.710
125.288	 -5.495	 -5.695
125.292	 -5.465	 -5.685
125.296	 -5.445	 -5.675
125.300	 -5.430	 -5.665
125.304	 -5.415	 -5.650
125.308	 -5.405	 -5.640
125.312	 -5.400	 -5.635
125.316	 -5.400	 -5.620
125.320	 -5.410	 -5.615
125.324	 -5.425	 -5.605
125.328	 -5.440	 -5.595
125.332	 -5.460	 -5.590
125.336	 -5.475	 -5.590
125.340	 -5.495	 -5.585
125.344	 -5.520	 -5.580
125.348	 -5.550	 -5.580
125.352	 -5.575	 -5.585
125.356	 -5.600	 -5.590
125.360	 -5.620	 -5.595
125.364	 -5.645	 -5.600
125.368	 -5.665	 -5.600
125.372	 -5.685	 -5.605
125.376	 -5.700	 -5.615
125.380	 -5.720	 -5.625
125.384	 -5.735	 -5.630
125.388	 -5.750	 -5.640
125.392	 -5.765	 -5.645
125.396	 -5.775	 -5.650
125.400	 -5.790	 -5.655
125.404	 -5.805	 -5.660
125.408	 -5.815	 -5.665
125.412	 -5.820	 -5.660
125.416	 -5.825	 -5.670
125.420	 -5.830	 -5.675
125.424	 -5.835	 -5.675
125.428	 -5.835	 -5.670
125.432	 -5.835	 -5.665
125.436	 -5.835	 -5.670
125.440	 -5.830	 -5.665
125.444	 -5.820	 -5.660
125.448	 -5.820	 -5.660
125.452	 -5.820	 -5.660
125.456	 -5.815	 -5.655
125.460	 -5.805	 -5.650
125.464	 -5.805	 -5.645
125.468	 -5.800	 -5.640
125.472	 -5.800	 -5.630
125.476	 -5.795	 -5.625
125.480	 -5.790	 -5.615
125.484	 -5.780	 -5.615
125.488	 -5.765	 -5.605
125.492	 -5.750	 -5.605
125.496	 -5.740	 -5.595
125.500	 -5.730	 -5.590
125.504	 -5.725	 -5.575
125.508	 -5.725	 -5.565
125.512	 -5.725	 -5.560
125.516	 -5.710	 -5.560
125.520	 -5.695	 -5.560
125.524	 -5.670	 -5.560
125.528	 -5.645	 -5.555
125.532	 -5.635	 -5.555
125.536	 -5.635	 -5.540
125.540	 -5.645	 -5.525
125.544	 -5.645	 -5.515
125.548	 -5.645	 -5.515
125.552	 -5.650	 -5.520
125.556	 -5.660	 -5.520
125.560	 -5.675	 -5.525
125.564	 -5.690	 -5.540
125.568	 -5.710	 -5.550
125.572	 -5.730	 -5.560
125.576	 -5.755	 -5.580
125.580	 -5.780	 -5.595
125.584	 -5.800	 -5.615
125.588	 -5.820	 -5.620
125.592	 -5.835	 -5.630
125.596	 -5.840	 -5.645
125.600	 -5.850	 -5.660
125.604	 -5.855	 -5.675
125.608	 -5.855	 -5.685
125.612	 -5.860	 -5.685
125.616	 -5.865	 -5.690
125.620	 -5.870	 -5.700
125.624	 -5.870	 -5.705
125.628	 -5.870	 -5.700
125.632	 -5.865	 -5.700
125.636	 -5.860	 -5.705
125.640	 -5.870	 -5.710
125.644	 -5.885	 -5.715
125.648	 -5.890	 -5.715
125.652	 -5.825	 -5.720
125.656	 -5.695	 -5.730
125.660	 -5.555	 -5.740
125.664	 -5.355	 -5.705
125.668	 -5.030	 -5.660
125.672	 -4.630	 -5.645
125.676	 -4.300	 -5.640
125.680	 -4.120	 -5.595
125.684	 -4.080	 -5.515
125.688	 -4.135	 -5.400
125.692	 -4.355	 -5.300
125.696	 -4.665	 -5.290
125.700	 -5.080	 -5.345
125.704	 -5.525	 -5.450
125.708	 -5.930	 -5.530
125.712	 -6.200	 -5.615
125.716	 -6.300	 -5.755
125.720	 -6.285	 -5.920
125.724	 -6.280	 -6.030
125.728	 -6.280	 -6.100
125.732	 -6.255	 -6.120
125.736	 -6.190	 -6.120
125.740	 -6.120	 -6.110
125.744	 -6.065	 -6.080
125.748	 -6.045	 -6.015
125.752	 -6.040	 -5.935
125.756	 -6.035	 -5.880
125.760	 -6.030	 -5.845
125.764	 -6.025	 -5.835
125.768	 -6.025	 -5.825
125.772	 -6.030	 -5.820
125.776	 -6.030	 -5.810
125.780	 -6.025	 -5.810
125.784	 -6.020	 -5.810
125.788	 -6.020	 -5.805
125.792	 -6.020	 -5.805
125.796	 -6.015	 -5.805
125.800	 -6.015	 -5.810
125.804	 -6.000	 -5.815
125.808	 -5.995	 -5.815
125.812	 -5.980	 -5.810
125.816	 -5.965	 -5.815
125.820	 -5.945	 -5.810
125.824	 -5.930	 -5.810
125.828	 -5.910	 -5.815
125.832	 -5.880	 -5.810
125.836	 -5.850	 -5.805
125.840	 -5.820	 -5.805
125.844	 -5.795	 -5.800
125.848	 -5.755	 -5.795
125.852	 -5.720	 -5.785
125.856	 -5.685	 -5.775
125.860	 -5.660	 -5.770
125.864	 -5.625	 -5.765
125.868	 -5.600	 -5.755
125.872	 -5.580	 -5.745
125.876	 -5.565	 -5.735
125.880	 -5.550	 -5.730
125.884	 -5.540	 -5.720
125.888	 -5.535	 -5.715
125.892	 -5.530	 -5.700
125.896	 -5.530	 -5.685
125.900	 -5.530	 -5.685
125.904	 -5.540	 -5.675
125.908	 -5.555	 -5.660
125.912	 -5.570	 -5.655
125.916	 -5.580	 -5.645
125.920	 -5.600	 -5.640
125.924	 -5.625	 -5.625
125.928	 -5.640	 -5.620
125.932	 -5.660	 -5.615
125.936	 -5.670	 -5.615
125.940	 -5.690	 -5.615
125.944	 -5.715	 -5.620
125.948	 -5.730	 -5.615
125.952	 -5.750	 -5.620
125.956	 -5.770	 -5.630
125.960	 -5.785	 -5.630
125.964	 -5.800	 -5.640
125.968	 -5.815	 -5.645
125.972	 -5.825	 -5.655
125.976	 -5.835	 -5.665
125.980	 -5.840	 -5.665
125.984	 -5.850	 -5.665
125.988	 -5.855	 -5.675
125.992	 -5.865	 -5.680
125.996	 -5.875	 -5.685
126.000	 -5.880	 -5.685
126.004	 -5.885	 -5.690
126.008	 -5.890	 -5.690
126.012	 -5.885	 -5.685
126.016	 -5.880	 -5.685
126.020	 -5.895	 -5.685
126.024	 -5.895	 -5.680
126.028	 -5.905	 -5.665
126.032	 -5.915	 -5.660
126.036	 -5.915	 -5.665
126.040	 -5.900	 -5.660
126.044	 -5.890	 -5.650
126.048	 -5.880	 -5.645
126.052	 -5.875	 -5.630
126.056	 -5.870	 -5.625
126.060	 -5.865	 -5.620
126.064	 -5.860	 -5.605
126.068	 -5.850	 -5.600
126.072	 -5.840	 -5.600
126.076	 -5.830	 -5.595
126.080	 -5.820	 -5.600
126.084	 -5.805	 -5.595
126.088	 -5.800	 -5.590
126.092	 -5.795	 -5.580
126.096	 -5.790	 -5.575
126.100	 -5.795	 -5.570
126.104	 -5.800	 -5.570
126.108	 -5.790	 -5.560
126.112	 -5.770	 -5.560
126.116	 -5.745	 -5.560
126.120	 -5.730	 -5.560
126.124	 -5.730	 -5.540
126.128	 -5.730	 -5.515
126.132	 -5.720	 -5.505
126.136	 -5.730	 -5.510
126.140	 -5.735	 -5.515
126.144	 -5.740	 -5.515
126.148	 -5.755	 -5.515
126.152	 -5.775	 -5.530
126.156	 -5.785	 -5.540
126.160	 -5.800	 -5.560
126.164	 -5.825	 -5.575
126.168	 -5.845	 -5.585
126.172	 -5.865	 -5.595
126.176	 -5.880	 -5.605
126.180	 -5.890	 -5.615
126.184	 -5.890	 -5.625
126.188	 -5.895	 -5.645
126.192	 -5.905	 -5.655
126.196	 -5.900	 -5.665
126.200	 -5.895	 -5.680
126.204	 -5.895	 -5.680
126.208	 -5.895	 -5.685
126.212	 -5.900	 -5.685
126.216	 -5.905	 -5.690
126.220	 -5.910	 -5.695
126.224	 -5.910	 -5.695
126.228	 -5.920	 -5.700
126.232	 -5.955	 -5.705
126.236	 -5.945	 -5.705
126.240	 -5.865	 -5.715
126.244	 -5.730	 -5.720
126.248	 -5.575	 -5.725
126.252	 -5.340	 -5.665
126.256	 -4.990	 -5.640
126.260	 -4.600	 -5.625
126.264	 -4.290	 -5.610
126.268	 -4.140	 -5.565
126.272	 -4.100	 -5.475
126.276	 -4.170	 -5.370
126.280	 -4.390	 -5.275
126.284	 -4.730	 -5.275
126.288	 -5.170	 -5.325
126.292	 -5.635	 -5.435
126.296	 -6.015	 -5.505
126.300	 -6.250	 -5.610
126.304	 -6.310	 -5.750
126.308	 -6.300	 -5.895
126.312	 -6.300	 -6.000
126.316	 -6.300	 -6.060
126.320	 -6.270	 -6.070
126.324	 -6.220	 -6.060
126.328	 -6.165	 -6.050
126.332	 -6.120	 -6.020
126.336	 -6.105	 -5.960
126.340	 -6.110	 -5.900
126.344	 -6.105	 -5.845
126.348	 -6.095	 -5.815
126.352	 -6.070	 -5.815
126.356	 -6.055	 -5.805
126.360	 -6.050	 -5.800
126.364	 -6.045	 -5.800
126.368	 -6.040	 -5.795
126.372	 -6.030	 -5.795
126.376	 -6.025	 -5.795
126.380	 -6.020	 -5.795
126.384	 -6.020	 -5.795
126.388	 -6.010	 -5.790
126.392	 -6.000	 -5.795
126.396	 -6.000	 -5.795
126.400	 -5.985	 -5.795
126.404	 -5.970	 -5.795
126.408	 -5.945	 -5.790
126.412	 -5.920	 -5.795
126.416	 -5.895	 -5.800
126.420	 -5.870	 -5.800
126.424	 -5.840	 -5.800
126.428	 -5.810	 -5.795
126.432	 -5.780	 -5.795
126.436	 -5.745	 -5.790
126.440	 -5.715	 -5.785
126.444	 -5.695	 -5.775
126.448	 -5.670	 -5.765
126.452	 -5.640	 -5.760
126.456	 -5.620	 -5.750
126.460	 -5.590	 -5.740
126.464	 -5.575	 -5.730
126.468	 -5.560	 -5.720
126.472	 -5.555	 -5.710
126.476	 -5.545	 -5.700
126.480	 -5.535	 -5.690
126.484	 -5.540	 -5.685
126.488	 -5.545	 -5.665
126.492	 -5.540	 -5.660
126.496	 -5.555	 -5.645
126.500	 -5.570	 -5.645
126.504	 -5.600	 -5.635
126.508	 -5.615	 -5.625
126.512	 -5.630	 -5.625
126.516	 -5.650	 -5.620
126.520	 -5.665	 -5.615
126.524	 -5.685	 -5.615
126.528	 -5.715	 -5.615
126.532	 -5.735	 -5.625
126.536	 -5.755	 -5.625
126.540	 -5.780	 -5.630
126.544	 -5.805	 -5.630
126.548	 -5.820	 -5.630
126.552	 -5.830	 -5.645
126.556	 -5.825	 -5.650
126.560	 -5.825	 -5.650
126.564	 -5.835	 -5.655
126.568	 -5.845	 -5.660
126.572	 -5.855	 -5.665
126.576	 -5.870	 -5.675
126.580	 -5.880	 -5.680
126.584	 -5.885	 -5.680
126.588	 -5.890	 -5.685
126.592	 -5.895	 -5.685
126.596	 -5.885	 -5.685
126.600	 -5.870	 -5.685
126.604	 -5.870	 -5.685
126.608	 -5.870	 -5.680
126.612	 -5.870	 -5.680
126.616	 -5.875	 -5.680
126.620	 -5.875	 -5.675
126.624	 -5.870	 -5.660
126.628	 -5.860	 -5.660
126.632	 -5.850	 -5.655
126.636	 -5.840	 -5.650
126.640	 -5.840	 -5.645
126.644	 -5.845	 -5.640
126.648	 -5.850	 -5.630
126.652	 -5.835	 -5.625
126.656	 -5.825	 -5.625
126.660	 -5.815	 -5.620
126.664	 -5.805	 -5.610
126.668	 -5.795	 -5.600
126.672	 -5.785	 -5.595
126.676	 -5.780	 -5.585
126.680	 -5.785	 -5.580
126.684	 -5.780	 -5.570
126.688	 -5.760	 -5.570
126.692	 -5.720	 -5.570
126.696	 -5.700	 -5.565
126.700	 -5.695	 -5.555
126.704	 -5.710	 -5.530
126.708	 -5.710	 -5.520
126.712	 -5.710	 -5.520
126.716	 -5.715	 -5.535
126.720	 -5.740	 -5.530
126.724	 -5.755	 -5.535
126.728	 -5.770	 -5.545
126.732	 -5.790	 -5.560
126.736	 -5.815	 -5.575
126.740	 -5.835	 -5.590
126.744	 -5.845	 -5.600
126.748	 -5.880	 -5.615
126.752	 -5.890	 -5.625
126.756	 -5.905	 -5.635
126.760	 -5.920	 -5.650
126.764	 -5.910	 -5.660
126.768	 -5.905	 -5.680
126.772	 -5.895	 -5.690
126.776	 -5.900	 -5.700
126.780	 -5.900	 -5.705
126.784	 -5.900	 -5.710
126.788	 -5.900	 -5.710
126.792	 -5.900	 -5.715
126.796	 -5.890	 -5.715
126.800	 -5.885	 -5.720
126.804	 -5.890	 -5.720
126.808	 -5.910	 -5.720
126.812	 -5.915	 -5.730
126.816	 -5.865	 -5.735
126.820	 -5.745	 -5.740
126.824	 -5.600	 -5.750
126.828	 -5.395	 -5.715
126.832	 -5.075	 -5.675
126.836	 -4.670	 -5.665
126.840	 -4.325	 -5.665
126.844	 -4.135	 -5.625
126.848	 -4.075	 -5.550
126.852	 -4.125	 -5.450
126.856	 -4.335	 -5.350
126.860	 -4.680	 -5.335
126.864	 -5.120	 -5.375
126.868	 -5.580	 -5.475
126.872	 -5.980	 -5.550
126.876	 -6.240	 -5.645
126.880	 -6.300	 -5.770
126.884	 -6.290	 -5.905
126.888	 -6.295	 -6.005
126.892	 -6.280	 -6.055
126.896	 -6.260	 -6.060
126.900	 -6.200	 -6.055
126.904	 -6.145	 -6.045
126.908	 -6.105	 -6.020
126.912	 -6.090	 -5.970
126.916	 -6.085	 -5.920
126.920	 -6.085	 -5.870
126.924	 -6.085	 -5.845
126.928	 -6.095	 -5.845
126.932	 -6.095	 -5.840
126.936	 -6.095	 -5.830
126.940	 -6.085	 -5.825
126.944	 -6.080	 -5.820
126.948	 -6.070	 -5.815
126.952	 -6.065	 -5.820
126.956	 -6.070	 -5.815
126.960	 -6.065	 -5.820
126.964	 -6.050	 -5.820
126.968	 -6.035	 -5.830
126.972	 -6.015	 -5.825
126.976	 -6.005	 -5.830
126.980	 -5.990	 -5.830
126.984	 -5.970	 -5.830
126.988	 -5.945	 -5.835
126.992	 -5.920	 -5.840
126.996	 -5.880	 -5.840
127.000	 -5.845	 -5.835
127.004	 -5.805	 -5.830
127.008	 -5.770	 -5.825
127.012	 -5.735	 -5.820
127.016	 -5.710	 -5.820
127.020	 -5.700	 -5.810
127.024	 -5.675	 -5.805
127.028	 -5.640	 -5.795
127.032	 -5.610	 -5.790
127.036	 -5.590	 -5.780
127.040	 -5.580	 -5.770
127.044	 -5.580	 -5.755
127.048	 -5.575	 -5.745
127.052	 -5.565	 -5.740
127.056	 -5.560	 -5.730
127.060	 -5.560	 -5.720
127.064	 -5.565	 -5.710
127.068	 -5.580	 -5.700
127.072	 -5.595	 -5.695
127.076	 -5.615	 -5.685
127.080	 -5.630	 -5.675
127.084	 -5.640	 -5.665
127.088	 -5.660	 -5.660
127.092	 -5.680	 -5.660
127.096	 -5.700	 -5.650
127.100	 -5.715	 -5.650
127.104	 -5.725	 -5.645
127.108	 -5.755	 -5.650
127.112	 -5.780	 -5.655
127.116	 -5.805	 -5.655
127.120	 -5.815	 -5.655
127.124	 -5.815	 -5.660
127.128	 -5.825	 -5.670
127.132	 -5.840	 -5.675
127.136	 -5.850	 -5.680
127.140	 -5.875	 -5.685
127.144	 -5.880	 -5.695
127.148	 -5.885	 -5.700
127.152	 -5.905	 -5.710
127.156	 -5.900	 -5.710
127.160	 -5.900	 -5.705
127.164	 -5.895	 -5.710
127.168	 -5.895	 -5.710
127.172	 -5.910	 -5.715
127.176	 -5.905	 -5.720
127.180	 -5.900	 -5.715
127.184	 -5.905	 -5.710
127.188	 -5.905	 -5.715
127.192	 -5.890	 -5.715
127.196	 -5.880	 -5.710
127.200	 -5.880	 -5.705
127.204	 -5.875	 -5.695
127.208	 -5.860	 -5.695
127.212	 -5.865	 -5.685
127.216	 -5.865	 -5.680
127.220	 -5.865	 -5.665
127.224	 -5.855	 -5.665
127.228	 -5.840	 -5.665
127.232	 -5.830	 -5.665
127.236	 -5.805	 -5.655
127.240	 -5.800	 -5.650
127.244	 -5.785	 -5.640
127.248	 -5.775	 -5.625
127.252	 -5.775	 -5.615
127.256	 -5.780	 -5.615
127.260	 -5.780	 -5.600
127.264	 -5.755	 -5.595
127.268	 -5.740	 -5.595
127.272	 -5.715	 -5.595
127.276	 -5.710	 -5.575
127.280	 -5.720	 -5.560
127.284	 -5.715	 -5.540
127.288	 -5.720	 -5.540
127.292	 -5.730	 -5.550
127.296	 -5.740	 -5.555
127.300	 -5.755	 -5.555
127.304	 -5.775	 -5.560
127.308	 -5.790	 -5.565
127.312	 -5.800	 -5.580
127.316	 -5.810	 -5.595
127.320	 -5.835	 -5.605
127.324	 -5.850	 -5.625
127.328	 -5.880	 -5.640
127.332	 -5.890	 -5.655
127.336	 -5.890	 -5.665
127.340	 -5.890	 -5.685
127.344	 -5.900	 -5.695
127.348	 -5.905	 -5.710
127.352	 -5.900	 -5.725
127.356	 -5.905	 -5.730
127.360	 -5.920	 -5.735
127.364	 -5.915	 -5.735
127.368	 -5.900	 -5.735
127.372	 -5.890	 -5.735
127.376	 -5.890	 -5.730
127.380	 -5.895	 -5.735
127.384	 -5.910	 -5.740
127.388	 -5.905	 -5.750
127.392	 -5.855	 -5.755
127.396	 -5.705	 -5.765
127.400	 -5.565	 -5.775
127.404	 -5.335	 -5.730
127.408	 -4.985	 -5.685
127.412	 -4.595	 -5.675
127.416	 -4.250	 -5.665
127.420	 -4.070	 -5.615
127.424	 -4.010	 -5.535
127.428	 -4.080	 -5.440
127.432	 -4.300	 -5.355
127.436	 -4.640	 -5.355
127.440	 -5.080	 -5.420
127.444	 -5.550	 -5.520
127.448	 -5.955	 -5.590
127.452	 -6.200	 -5.685
127.456	 -6.250	 -5.815
127.460	 -6.240	 -5.935
127.464	 -6.245	 -6.005
127.468	 -6.240	 -6.050
127.472	 -6.210	 -6.060
127.476	 -6.175	 -6.050
127.480	 -6.135	 -6.040
127.484	 -6.110	 -6.005
127.488	 -6.090	 -5.955
127.492	 -6.090	 -5.905
127.496	 -6.070	 -5.870
127.500	 -6.065	 -5.845
127.504	 -6.065	 -5.845
127.508	 -6.070	 -5.840
127.512	 -6.060	 -5.835
127.516	 -6.050	 -5.830
127.520	 -6.055	 -5.820
127.524	 -6.050	 -5.815
127.528	 -6.045	 -5.820
127.532	 -6.035	 -5.825
127.536	 -6.025	 -5.825
127.540	 -6.025	 -5.825
127.544	 -6.030	 -5.830
127.548	 -6.030	 -5.830
127.552	 -6.020	 -5.840
127.556	 -6.000	 -5.835
127.560	 -5.980	 -5.830
127.564	 -5.960	 -5.830
127.568	 -5.935	 -5.830
127.572	 -5.905	 -5.830
127.576	 -5.880	 -5.830
127.580	 -5.845	 -5.825
127.584	 -5.815	 -5.825
127.588	 -5.780	 -5.820
127.592	 -5.750	 -5.815
127.596	 -5.715	 -5.810
127.600	 -5.675	 -5.795
127.604	 -5.635	 -5.790
127.608	 -5.610	 -5.785
127.612	 -5.585	 -5.770
127.616	 -5.565	 -5.760
127.620	 -5.550	 -5.745
127.624	 -5.535	 -5.735
127.628	 -5.525	 -5.730
127.632	 -5.525	 -5.720
127.636	 -5.525	 -5.710
127.640	 -5.535	 -5.695
127.644	 -5.555	 -5.685
127.648	 -5.565	 -5.680
127.652	 -5.575	 -5.675
127.656	 -5.590	 -5.665
127.660	 -5.605	 -5.660
127.664	 -5.625	 -5.660
127.668	 -5.640	 -5.660
127.672	 -5.670	 -5.660
127.676	 -5.695	 -5.650
127.680	 -5.720	 -5.650
127.684	 -5.740	 -5.645
127.688	 -5.755	 -5.660
127.692	 -5.770	 -5.660
127.696	 -5.775	 -5.660
127.700	 -5.785	 -5.660
127.704	 -5.800	 -5.670
127.708	 -5.810	 -5.670
127.712	 -5.820	 -5.675
127.716	 -5.820	 -5.680
127.720	 -5.825	 -5.685
127.724	 -5.840	 -5.685
127.728	 -5.850	 -5.690
127.732	 -5.860	 -5.695
127.736	 -5.860	 -5.705
127.740	 -5.865	 -5.705
127.744	 -5.870	 -5.710
127.748	 -5.875	 -5.715
127.752	 -5.880	 -5.720
127.756	 -5.880	 -5.715
127.760	 -5.880	 -5.715
127.764	 -5.870	 -5.705
127.768	 -5.870	 -5.700
127.772	 -5.875	 -5.705
127.776	 -5.875	 -5.690
127.780	 -5.870	 -5.685
127.784	 -5.865	 -5.685
127.788	 -5.855	 -5.685
127.792	 -5.845	 -5.675
127.796	 -5.840	 -5.660
127.800	 -5.825	 -5.660
127.804	 -5.820	 -5.650
127.808	 -5.810	 -5.650
127.812	 -5.805	 -5.645
127.816	 -5.785	 -5.640
127.820	 -5.770	 -5.630
127.824	 -5.760	 -5.625
127.828	 -5.740	 -5.610
127.832	 -5.740	 -5.595
127.836	 -5.740	 -5.585
127.840	 -5.735	 -5.580
127.844	 -5.730	 -5.580
127.848	 -5.720	 -5.585
127.852	 -5.700	 -5.585
127.856	 -5.680	 -5.575
127.860	 -5.670	 -5.560
127.864	 -5.670	 -5.545
127.868	 -5.675	 -5.525
127.872	 -5.675	 -5.525
127.876	 -5.670	 -5.535
127.880	 -5.685	 -5.540
127.884	 -5.695	 -5.540
127.888	 -5.710	 -5.545
127.892	 -5.730	 -5.560
127.896	 -5.750	 -5.570
127.900	 -5.770	 -5.575
127.904	 -5.785	 -5.595
127.908	 -5.815	 -5.610
127.912	 -5.840	 -5.625
127.916	 -5.860	 -5.630
127.920	 -5.860	 -5.645
127.924	 -5.850	 -5.655
127.928	 -5.855	 -5.680
127.932	 -5.860	 -5.695
127.936	 -5.860	 -5.700
127.940	 -5.870	 -5.705
127.944	 -5.875	 -5.715
127.948	 -5.865	 -5.720
127.952	 -5.860	 -5.720
127.956	 -5.860	 -5.720
127.960	 -5.850	 -5.720
127.964	 -5.850	 -5.720
127.968	 -5.870	 -5.720
127.972	 -5.885	 -5.730
127.976	 -5.865	 -5.730
127.980	 -5.775	 -5.730
127.984	 -5.640	 -5.750
127.988	 -5.480	 -5.740
127.992	 -5.215	 -5.695
127.996	 -4.825	 -5.665
128.000	 -4.425	 -5.660
128.004	 -4.130	 -5.630
128.008	 -3.985	 -5.570
128.012	 -3.955	 -5.485
128.016	 -4.065	 -5.370
128.020	 -4.315	 -5.315
128.024	 -4.680	 -5.350
128.028	 -5.140	 -5.440
128.032	 -5.600	 -5.540
128.036	 -5.975	 -5.610
128.040	 -6.190	 -5.715
128.044	 -6.215	 -5.845
128.048	 -6.200	 -5.960
128.052	 -6.200	 -6.025
128.056	 -6.190	 -6.050
128.060	 -6.155	 -6.050
128.064	 -6.100	 -6.035
128.068	 -6.045	 -6.025
128.072	 -6.030	 -5.985
128.076	 -6.025	 -5.930
128.080	 -6.020	 -5.880
128.084	 -6.015	 -5.845
128.088	 -6.015	 -5.835
128.092	 -6.015	 -5.830
128.096	 -6.015	 -5.820
128.100	 -6.010	 -5.815
128.104	 -6.000	 -5.815
128.108	 -5.995	 -5.815
128.112	 -5.990	 -5.815
128.116	 -5.990	 -5.815
128.120	 -5.990	 -5.810
128.124	 -5.990	 -5.810
128.128	 -5.980	 -5.810
128.132	 -5.975	 -5.810
128.136	 -5.965	 -5.810
128.140	 -5.955	 -5.815
128.144	 -5.935	 -5.815
128.148	 -5.920	 -5.815
128.152	 -5.900	 -5.825
128.156	 -5.880	 -5.815
128.160	 -5.860	 -5.810
128.164	 -5.820	 -5.810
128.168	 -5.790	 -5.805
128.172	 -5.765	 -5.800
128.176	 -5.730	 -5.795
128.180	 -5.695	 -5.785
128.184	 -5.660	 -5.785
128.188	 -5.625	 -5.775
128.192	 -5.600	 -5.770
128.196	 -5.580	 -5.755
128.200	 -5.560	 -5.745
128.204	 -5.535	 -5.740
128.208	 -5.510	 -5.730
128.212	 -5.490	 -5.730
128.216	 -5.480	 -5.720
128.220	 -5.470	 -5.710
128.224	 -5.470	 -5.700
128.228	 -5.465	 -5.695
128.232	 -5.465	 -5.685
128.236	 -5.480	 -5.680
128.240	 -5.490	 -5.665
128.244	 -5.505	 -5.660
128.248	 -5.520	 -5.655
128.252	 -5.530	 -5.650
128.256	 -5.550	 -5.645
128.260	 -5.575	 -5.645
128.264	 -5.600	 -5.645
128.268	 -5.625	 -5.645
128.272	 -5.650	 -5.645
128.276	 -5.670	 -5.650
128.280	 -5.690	 -5.655
128.284	 -5.710	 -5.655
128.288	 -5.715	 -5.660
128.292	 -5.735	 -5.660
128.296	 -5.745	 -5.665
128.300	 -5.760	 -5.665
128.304	 -5.765	 -5.680
128.308	 -5.780	 -5.685
128.312	 -5.790	 -5.690
128.316	 -5.785	 -5.690
128.320	 -5.795	 -5.695
128.324	 -5.800	 -5.700
128.328	 -5.800	 -5.705
128.332	 -5.810	 -5.705
128.336	 -5.815	 -5.705
128.340	 -5.815	 -5.705
128.344	 -5.810	 -5.705
128.348	 -5.805	 -5.710
128.352	 -5.810	 -5.705
128.356	 -5.820	 -5.705
128.360	 -5.820	 -5.695
128.364	 -5.820	 -5.690
128.368	 -5.815	 -5.690
128.372	 -5.810	 -5.685
128.376	 -5.810	 -5.680
128.380	 -5.805	 -5.675
128.384	 -5.800	 -5.665
128.388	 -5.800	 -5.660
128.392	 -5.795	 -5.660
128.396	 -5.790	 -5.645
128.400	 -5.785	 -5.640
128.404	 -5.780	 -5.640
128.408	 -5.770	 -5.635
128.412	 -5.760	 -5.630
128.416	 -5.745	 -5.625
128.420	 -5.730	 -5.625
128.424	 -5.710	 -5.630
128.428	 -5.710	 -5.625
128.432	 -5.700	 -5.615
128.436	 -5.700	 -5.600
128.440	 -5.700	 -5.600
128.444	 -5.695	 -5.600
128.448	 -5.680	 -5.600
128.452	 -5.655	 -5.595
128.456	 -5.640	 -5.590
128.460	 -5.635	 -5.585
128.464	 -5.640	 -5.575
128.468	 -5.645	 -5.555
128.472	 -5.650	 -5.550
128.476	 -5.655	 -5.550
128.480	 -5.655	 -5.555
128.484	 -5.665	 -5.555
128.488	 -5.680	 -5.570
128.492	 -5.700	 -5.580
128.496	 -5.720	 -5.585
128.500	 -5.735	 -5.595
128.504	 -5.760	 -5.620
128.508	 -5.775	 -5.630
128.512	 -5.800	 -5.640
128.516	 -5.820	 -5.645
128.520	 -5.825	 -5.660
128.524	 -5.830	 -5.670
128.528	 -5.830	 -5.685
128.532	 -5.830	 -5.705
128.536	 -5.830	 -5.715
128.540	 -5.835	 -5.715
128.544	 -5.840	 -5.715
128.548	 -5.840	 -5.725
128.552	 -5.835	 -5.720
128.556	 -5.830	 -5.730
128.560	 -5.825	 -5.725
128.564	 -5.830	 -5.730
128.568	 -5.840	 -5.730
128.572	 -5.865	 -5.735
128.576	 -5.845	 -5.735
128.580	 -5.760	 -5.740
128.584	 -5.620	 -5.755
128.588	 -5.460	 -5.745
128.592	 -5.215	 -5.690
128.596	 -4.845	 -5.660
128.600	 -4.445	 -5.660
128.604	 -4.150	 -5.630
128.608	 -4.005	 -5.565
128.612	 -3.980	 -5.475
128.616	 -4.080	 -5.370
128.620	 -4.310	 -5.305
128.624	 -4.675	 -5.345
128.628	 -5.110	 -5.445
128.632	 -5.570	 -5.555
128.636	 -5.955	 -5.625
128.640	 -6.165	 -5.725
128.644	 -6.200	 -5.865
128.648	 -6.190	 -5.985
128.652	 -6.185	 -6.055
128.656	 -6.180	 -6.075
128.660	 -6.140	 -6.070
128.664	 -6.090	 -6.060
128.668	 -6.040	 -6.040
128.672	 -6.010	 -5.985
128.676	 -6.010	 -5.925
128.680	 -6.005	 -5.875
128.684	 -6.000	 -5.845
128.688	 -6.000	 -5.835
128.692	 -6.000	 -5.830
128.696	 -5.995	 -5.820
128.700	 -5.990	 -5.815
128.704	 -5.995	 -5.810
128.708	 -6.000	 -5.810
128.712	 -6.000	 -5.810
128.716	 -5.995	 -5.810
128.720	 -5.990	 -5.805
128.724	 -5.980	 -5.810
128.728	 -5.970	 -5.815
128.732	 -5.965	 -5.810
128.736	 -5.960	 -5.810
128.740	 -5.955	 -5.810
128.744	 -5.940	 -5.815
128.748	 -5.920	 -5.810
128.752	 -5.900	 -5.815
128.756	 -5.880	 -5.810
128.760	 -5.860	 -5.810
128.764	 -5.835	 -5.810
128.768	 -5.800	 -5.810
128.772	 -5.760	 -5.805
128.776	 -5.735	 -5.800
128.780	 -5.700	 -5.790
128.784	 -5.670	 -5.780
128.788	 -5.640	 -5.775
128.792	 -5.610	 -5.770
128.796	 -5.585	 -5.755
128.800	 -5.560	 -5.745
128.804	 -5.540	 -5.735
128.808	 -5.520	 -5.730
128.812	 -5.510	 -5.720
128.816	 -5.485	 -5.700
128.820	 -5.475	 -5.690
128.824	 -5.465	 -5.685
128.828	 -5.465	 -5.675
128.832	 -5.470	 -5.665
128.836	 -5.475	 -5.660
128.840	 -5.490	 -5.645
128.844	 -5.505	 -5.645
128.848	 -5.525	 -5.645
128.852	 -5.545	 -5.640
128.856	 -5.565	 -5.635
128.860	 -5.590	 -5.630
128.864	 -5.610	 -5.630
128.868	 -5.635	 -5.640
128.872	 -5.650	 -5.645
128.876	 -5.675	 -5.645
128.880	 -5.695	 -5.645
128.884	 -5.710	 -5.650
128.888	 -5.730	 -5.660
128.892	 -5.745	 -5.660
128.896	 -5.760	 -5.660
128.900	 -5.775	 -5.670
128.904	 -5.785	 -5.675
128.908	 -5.800	 -5.685
128.912	 -5.810	 -5.685
128.916	 -5.810	 -5.685
128.920	 -5.820	 -5.690
128.924	 -5.825	 -5.695
128.928	 -5.825	 -5.700
128.932	 -5.830	 -5.700
128.936	 -5.840	 -5.700
128.940	 -5.840	 -5.705
128.944	 -5.835	 -5.705
128.948	 -5.835	 -5.705
128.952	 -5.835	 -5.700
128.956	 -5.835	 -5.695
128.960	 -5.830	 -5.690
128.964	 -5.825	 -5.685
128.968	 -5.825	 -5.685
128.972	 -5.815	 -5.685
128.976	 -5.815	 -5.675
128.980	 -5.815	 -5.665
128.984	 -5.810	 -5.660
128.988	 -5.805	 -5.660
128.992	 -5.800	 -5.650
128.996	 -5.790	 -5.645
129.000	 -5.785	 -5.640
129.004	 -5.785	 -5.640
129.008	 -5.780	 -5.635
129.012	 -5.775	 -5.630
129.016	 -5.760	 -5.625
129.020	 -5.745	 -5.620
129.024	 -5.720	 -5.620
129.028	 -5.710	 -5.615
129.032	 -5.700	 -5.605
129.036	 -5.700	 -5.600
129.040	 -5.705	 -5.600
129.044	 -5.700	 -5.600
129.048	 -5.685	 -5.605
129.052	 -5.660	 -5.600
129.056	 -5.640	 -5.600
129.060	 -5.635	 -5.595
129.064	 -5.640	 -5.580
129.068	 -5.640	 -5.565
129.072	 -5.645	 -5.560
129.076	 -5.655	 -5.565
129.080	 -5.660	 -5.570
129.084	 -5.680	 -5.580
129.088	 -5.695	 -5.585
129.092	 -5.705	 -5.595
129.096	 -5.725	 -5.605
129.100	 -5.750	 -5.625
129.104	 -5.770	 -5.640
129.108	 -5.795	 -5.645
129.112	 -5.820	 -5.660
129.116	 -5.840	 -5.665
129.120	 -5.840	 -5.680
129.124	 -5.840	 -5.690
129.128	 -5.840	 -5.710
129.132	 -5.840	 -5.720
129.136	 -5.840	 -5.730
129.140	 -5.840	 -5.730
129.144	 -5.840	 -5.735
129.148	 -5.840	 -5.745
129.152	 -5.835	 -5.745
129.156	 -5.835	 -5.745
129.160	 -5.830	 -5.745
129.164	 -5.835	 -5.750
129.168	 -5.850	 -5.750
129.172	 -5.860	 -5.755
129.176	 -5.825	 -5.755
129.180	 -5.720	 -5.765
129.184	 -5.580	 -5.775
129.188	 -5.420	 -5.750
129.192	 -5.150	 -5.695
129.196	 -4.760	 -5.675
129.200	 -4.370	 -5.665
129.204	 -4.115	 -5.640
129.208	 -4.010	 -5.560
129.212	 -4.010	 -5.465
129.216	 -4.170	 -5.355
129.220	 -4.450	 -5.345
129.224	 -4.840	 -5.410
129.228	 -5.290	 -5.515
129.232	 -5.740	 -5.600
129.236	 -6.055	 -5.665
129.240	 -6.200	 -5.800
129.244	 -6.195	 -5.965
129.248	 -6.195	 -6.070
129.252	 -6.190	 -6.120
129.256	 -6.165	 -6.135
129.260	 -6.115	 -6.130
129.264	 -6.055	 -6.110
129.268	 -6.010	 -6.070
129.272	 -6.000	 -6.005
129.276	 -5.995	 -5.935
129.280	 -5.990	 -5.890
129.284	 -5.990	 -5.875
129.288	 -5.990	 -5.865
129.292	 -5.985	 -5.855
129.296	 -5.985	 -5.845
129.300	 -5.980	 -5.840
129.304	 -5.975	 -5.840
129.308	 -5.970	 -5.840
129.312	 -5.965	 -5.835
129.316	 -5.965	 -5.835
129.320	 -5.965	 -5.830
129.324	 -5.955	 -5.830
129.328	 -5.945	 -5.835
129.332	 -5.935	 -5.830
129.336	 -5.925	 -5.830
129.340	 -5.910	 -5.825
129.344	 -5.890	 -5.830
129.348	 -5.875	 -5.825
129.352	 -5.855	 -5.830
129.356	 -5.835	 -5.825
129.360	 -5.810	 -5.825
129.364	 -5.785	 -5.825
129.368	 -5.750	 -5.820
129.372	 -5.715	 -5.815
129.376	 -5.680	 -5.810
129.380	 -5.650	 -5.805
129.384	 -5.620	 -5.795
129.388	 -5.590	 -5.785
129.392	 -5.560	 -5.775
129.396	 -5.535	 -5.765
129.400	 -5.510	 -5.750
129.404	 -5.490	 -5.740
129.408	 -5.480	 -5.730
129.412	 -5.470	 -5.720
129.416	 -5.465	 -5.705
129.420	 -5.455	 -5.700
129.424	 -5.450	 -5.690
129.428	 -5.450	 -5.685
129.432	 -5.460	 -5.665
129.436	 -5.470	 -5.665
129.440	 -5.485	 -5.660
129.444	 -5.500	 -5.660
129.448	 -5.520	 -5.650
129.452	 -5.540	 -5.650
129.456	 -5.565	 -5.645
129.460	 -5.585	 -5.645
129.464	 -5.610	 -5.650
129.468	 -5.635	 -5.655
129.472	 -5.660	 -5.655
129.476	 -5.680	 -5.655
129.480	 -5.705	 -5.660
129.484	 -5.720	 -5.665
129.488	 -5.745	 -5.675
129.492	 -5.760	 -5.685
129.496	 -5.770	 -5.685
129.500	 -5.780	 -5.690
129.504	 -5.790	 -5.695
129.508	 -5.800	 -5.700
129.512	 -5.805	 -5.705
129.516	 -5.820	 -5.705
129.520	 -5.820	 -5.705
129.524	 -5.830	 -5.715
129.528	 -5.835	 -5.715
129.532	 -5.840	 -5.715
129.536	 -5.840	 -5.725
129.540	 -5.840	 -5.720
129.544	 -5.840	 -5.720
129.548	 -5.840	 -5.720
129.552	 -5.845	 -5.715
129.556	 -5.845	 -5.710
129.560	 -5.840	 -5.705
129.564	 -5.840	 -5.705
129.568	 -5.840	 -5.705
129.572	 -5.840	 -5.690
129.576	 -5.840	 -5.685
129.580	 -5.835	 -5.685
129.584	 -5.830	 -5.685
129.588	 -5.830	 -5.675
129.592	 -5.820	 -5.660
129.596	 -5.820	 -5.660
129.600	 -5.815	 -5.650
129.604	 -5.805	 -5.645
129.608	 -5.800	 -5.645
129.612	 -5.780	 -5.635
129.616	 -5.765	 -5.630
129.620	 -5.760	 -5.625
129.624	 -5.750	 -5.615
129.628	 -5.740	 -5.600
129.632	 -5.740	 -5.600
129.636	 -5.740	 -5.595
129.640	 -5.725	 -5.595
129.644	 -5.710	 -5.600
129.648	 -5.685	 -5.600
129.652	 -5.670	 -5.595
129.656	 -5.670	 -5.580
129.660	 -5.680	 -5.560
129.664	 -5.680	 -5.560
129.668	 -5.680	 -5.560
129.672	 -5.685	 -5.565
129.676	 -5.690	 -5.570
129.680	 -5.700	 -5.575
129.684	 -5.720	 -5.590
129.688	 -5.735	 -5.600
129.692	 -5.750	 -5.605
129.696	 -5.775	 -5.625
129.700	 -5.800	 -5.640
129.704	 -5.820	 -5.650
129.708	 -5.840	 -5.655
129.712	 -5.850	 -5.665
129.716	 -5.860	 -5.675
129.720	 -5.865	 -5.695
129.724	 -5.875	 -5.705
129.728	 -5.880	 -5.715
129.732	 -5.880	 -5.715
129.736	 -5.880	 -5.720
129.740	 -5.875	 -5.730
129.744	 -5.875	 -5.730
129.748	 -5.870	 -5.730
129.752	 -5.870	 -5.730
129.756	 -5.870	 -5.735
129.760	 -5.875	 -5.735
129.764	 -5.895	 -5.735
129.768	 -5.890	 -5.740
129.772	 -5.815	 -5.745
129.776	 -5.690	 -5.755
129.780	 -5.555	 -5.755
129.784	 -5.350	 -5.705
129.788	 -5.015	 -5.670
129.792	 -4.615	 -5.660
129.796	 -4.265	 -5.645
129.800	 -4.075	 -5.590
129.804	 -4.025	 -5.500
129.808	 -4.105	 -5.390
129.812	 -4.345	 -5.305
129.816	 -4.680	 -5.325
129.820	 -5.115	 -5.415
129.824	 -5.575	 -5.515
129.828	 -5.970	 -5.590
129.832	 -6.205	 -5.685
129.836	 -6.265	 -5.845
129.840	 -6.255	 -6.000
129.844	 -6.245	 -6.090
129.848	 -6.235	 -6.130
129.852	 -6.195	 -6.130
129.856	 -6.130	 -6.115
129.860	 -6.075	 -6.090
129.864	 -6.040	 -6.025
129.868	 -6.040	 -5.950
129.872	 -6.035	 -5.890
129.876	 -6.025	 -5.855
129.880	 -6.020	 -5.850
129.884	 -6.010	 -5.840
129.888	 -6.005	 -5.830
129.892	 -6.000	 -5.820
129.896	 -6.000	 -5.810
129.900	 -5.995	 -5.810
129.904	 -5.990	 -5.810
129.908	 -5.985	 -5.805
129.912	 -5.980	 -5.805
129.916	 -5.980	 -5.805
129.920	 -5.980	 -5.810
129.924	 -5.975	 -5.805
129.928	 -5.965	 -5.805
129.932	 -5.960	 -5.805
129.936	 -5.945	 -5.810
129.940	 -5.925	 -5.805
129.944	 -5.905	 -5.805
129.948	 -5.875	 -5.800
129.952	 -5.845	 -5.795
129.956	 -5.815	 -5.795
129.960	 -5.780	 -5.790
129.964	 -5.750	 -5.790
129.968	 -5.720	 -5.785
129.972	 -5.680	 -5.775
129.976	 -5.655	 -5.770
129.980	 -5.625	 -5.765
129.984	 -5.600	 -5.755
129.988	 -5.580	 -5.745
129.992	 -5.555	 -5.730
129.996	 -5.540	 -5.720
130.000	 -5.520	 -5.715
130.004	 -5.505	 -5.700
130.008	 -5.495	 -5.690
130.012	 -5.485	 -5.685
130.016	 -5.480	 -5.675
130.020	 -5.480	 -5.660
130.024	 -5.490	 -5.645
130.028	 -5.500	 -5.640
130.032	 -5.515	 -5.625
130.036	 -5.525	 -5.615
130.040	 -5.540	 -5.615
130.044	 -5.555	 -5.605
130.048	 -5.575	 -5.605
130.052	 -5.595	 -5.605
130.056	 -5.620	 -5.605
130.060	 -5.645	 -5.615
130.064	 -5.670	 -5.615
130.068	 -5.690	 -5.620
130.072	 -5.705	 -5.625
130.076	 -5.725	 -5.630
130.080	 -5.745	 -5.640
130.084	 -5.760	 -5.645
130.088	 -5.775	 -5.650
130.092	 -5.790	 -5.655
130.096	 -5.800	 -5.665
130.100	 -5.810	 -5.675
130.104	 -5.815	 -5.680
130.108	 -5.825	 -5.685
130.112	 -5.830	 -5.685
130.116	 -5.835	 -5.685
130.120	 -5.840	 -5.695
130.124	 -5.840	 -5.695
130.128	 -5.845	 -5.695
130.132	 -5.860	 -5.695
130.136	 -5.860	 -5.695
130.140	 -5.860	 -5.695
130.144	 -5.865	 -5.690
130.148	 -5.865	 -5.685
130.152	 -5.865	 -5.685
130.156	 -5.860	 -5.680
130.160	 -5.850	 -5.675
130.164	 -5.845	 -5.670
130.168	 -5.840	 -5.660
130.172	 -5.840	 -5.650
130.176	 -5.835	 -5.645
130.180	 -5.825	 -5.640
130.184	 -5.820	 -5.630
130.188	 -5.815	 -5.625
130.192	 -5.800	 -5.620
130.196	 -5.795	 -5.615
130.200	 -5.770	 -5.615
130.204	 -5.760	 -5.605
130.208	 -5.760	 -5.595
130.212	 -5.750	 -5.580
130.216	 -5.755	 -5.575
130.220	 -5.750	 -5.570
130.224	 -5.745	 -5.565
130.228	 -5.735	 -5.565
130.232	 -5.710	 -5.565
130.236	 -5.690	 -5.560
130.240	 -5.685	 -5.550
130.244	 -5.690	 -5.535
130.248	 -5.685	 -5.520
130.252	 -5.680	 -5.520
130.256	 -5.675	 -5.530
130.260	 -5.685	 -5.535
130.264	 -5.695	 -5.545
130.268	 -5.715	 -5.560
130.272	 -5.730	 -5.565
130.276	 -5.745	 -5.575
130.280	 -5.765	 -5.595
130.284	 -5.790	 -5.610
130.288	 -5.810	 -5.620
130.292	 -5.835	 -5.630
130.296	 -5.850	 -5.640
130.300	 -5.860	 -5.645
130.304	 -5.860	 -5.660
130.308	 -5.860	 -5.675
130.312	 -5.870	 -5.685
130.316	 -5.875	 -5.685
130.320	 -5.875	 -5.700
130.324	 -5.875	 -5.700
130.328	 -5.870	 -5.705
130.332	 -5.870	 -5.705
130.336	 -5.870	 -5.710
130.340	 -5.875	 -5.710
130.344	 -5.880	 -5.715
130.348	 -5.890	 -5.720
130.352	 -5.915	 -5.720
130.356	 -5.905	 -5.730
130.360	 -5.825	 -5.735
130.364	 -5.690	 -5.750
130.368	 -5.550	 -5.740
130.372	 -5.330	 -5.685
130.376	 -4.980	 -5.655
130.380	 -4.575	 -5.645
130.384	 -4.245	 -5.630
130.388	 -4.070	 -5.560
130.392	 -4.025	 -5.475
130.396	 -4.135	 -5.355
130.400	 -4.385	 -5.290
130.404	 -4.740	 -5.325
130.408	 -5.165	 -5.415
130.412	 -5.615	 -5.505
130.416	 -6.000	 -5.580
130.420	 -6.230	 -5.685
130.424	 -6.280	 -5.850
130.428	 -6.275	 -5.995
130.432	 -6.265	 -6.080
130.436	 -6.270	 -6.110
130.440	 -6.235	 -6.110
130.444	 -6.180	 -6.095
130.448	 -6.120	 -6.080
130.452	 -6.080	 -6.020
130.456	 -6.070	 -5.945
130.460	 -6.060	 -5.880
130.464	 -6.040	 -5.855
130.468	 -6.030	 -5.835
130.472	 -6.020	 -5.830
130.476	 -6.010	 -5.820
130.480	 -6.005	 -5.815
130.484	 -6.000	 -5.815
130.488	 -5.995	 -5.810
130.492	 -6.000	 -5.805
130.496	 -6.000	 -5.805
130.500	 -5.990	 -5.805
130.504	 -5.985	 -5.805
130.508	 -5.985	 -5.800
130.512	 -5.970	 -5.805
130.516	 -5.960	 -5.800
130.520	 -5.945	 -5.805
130.524	 -5.935	 -5.805
130.528	 -5.920	 -5.800
130.532	 -5.895	 -5.800
130.536	 -5.875	 -5.800
130.540	 -5.850	 -5.795
130.544	 -5.820	 -5.795
130.548	 -5.795	 -5.790
130.552	 -5.760	 -5.785
130.556	 -5.730	 -5.775
130.560	 -5.705	 -5.770
130.564	 -5.670	 -5.765
130.568	 -5.645	 -5.755
130.572	 -5.610	 -5.740
130.576	 -5.585	 -5.730
130.580	 -5.565	 -5.720
130.584	 -5.550	 -5.715
130.588	 -5.535	 -5.705
130.592	 -5.520	 -5.695
130.596	 -5.520	 -5.685
130.600	 -5.520	 -5.680
130.604	 -5.515	 -5.670
130.608	 -5.520	 -5.660
130.612	 -5.520	 -5.650
130.616	 -5.530	 -5.640
130.620	 -5.540	 -5.630
130.624	 -5.550	 -5.625
130.628	 -5.565	 -5.610
130.632	 -5.580	 -5.605
130.636	 -5.600	 -5.600
130.640	 -5.620	 -5.600
130.644	 -5.640	 -5.600
130.648	 -5.670	 -5.600
130.652	 -5.690	 -5.600
130.656	 -5.710	 -5.600
130.660	 -5.735	 -5.605
130.664	 -5.755	 -5.615
130.668	 -5.770	 -5.620
130.672	 -5.780	 -5.630
130.676	 -5.790	 -5.635
130.680	 -5.795	 -5.645
130.684	 -5.805	 -5.655
130.688	 -5.815	 -5.665
130.692	 -5.820	 -5.665
130.696	 -5.830	 -5.665
130.700	 -5.835	 -5.675
130.704	 -5.840	 -5.680
130.708	 -5.850	 -5.685
130.712	 -5.850	 -5.685
130.716	 -5.855	 -5.685
130.720	 -5.855	 -5.685
130.724	 -5.860	 -5.685
130.728	 -5.860	 -5.685
130.732	 -5.860	 -5.680
130.736	 -5.860	 -5.675
130.740	 -5.860	 -5.660
130.744	 -5.855	 -5.660
130.748	 -5.855	 -5.660
130.752	 -5.850	 -5.650
130.756	 -5.850	 -5.645
130.760	 -5.850	 -5.640
130.764	 -5.850	 -5.630
130.768	 -5.850	 -5.630
130.772	 -5.845	 -5.625
130.776	 -5.830	 -5.615
130.780	 -5.820	 -5.615
130.784	 -5.800	 -5.610
130.788	 -5.795	 -5.600
130.792	 -5.785	 -5.585
130.796	 -5.785	 -5.570
130.800	 -5.785	 -5.570
130.804	 -5.770	 -5.565
130.808	 -5.750	 -5.560
130.812	 -5.725	 -5.560
130.816	 -5.705	 -5.560
130.820	 -5.700	 -5.540
130.824	 -5.705	 -5.525
130.828	 -5.715	 -5.515
130.832	 -5.720	 -5.515
130.836	 -5.715	 -5.520
130.840	 -5.730	 -5.525
130.844	 -5.740	 -5.530
130.848	 -5.760	 -5.540
130.852	 -5.775	 -5.550
130.856	 -5.790	 -5.560
130.860	 -5.805	 -5.575
130.864	 -5.830	 -5.595
130.868	 -5.850	 -5.600
130.872	 -5.870	 -5.615
130.876	 -5.890	 -5.620
130.880	 -5.895	 -5.630
130.884	 -5.885	 -5.645
130.888	 -5.880	 -5.660
130.892	 -5.880	 -5.665
130.896	 -5.880	 -5.680
130.900	 -5.880	 -5.685
130.904	 -5.880	 -5.685
130.908	 -5.880	 -5.690
130.912	 -5.880	 -5.690
130.916	 -5.880	 -5.690
130.920	 -5.875	 -5.700
130.924	 -5.875	 -5.695
130.928	 -5.890	 -5.700
130.932	 -5.910	 -5.700
130.936	 -5.895	 -5.705
130.940	 -5.800	 -5.710
130.944	 -5.670	 -5.730
130.948	 -5.525	 -5.715
130.952	 -5.280	 -5.660
130.956	 -4.905	 -5.635
130.960	 -4.510	 -5.630
130.964	 -4.220	 -5.605
130.968	 -4.085	 -5.530
130.972	 -4.075	 -5.430
130.976	 -4.230	 -5.315
130.980	 -4.500	 -5.270
130.984	 -4.880	 -5.310
130.988	 -5.315	 -5.415
130.992	 -5.760	 -5.500
130.996	 -6.090	 -5.575
131.000	 -6.280	 -5.710
131.004	 -6.295	 -5.880
131.008	 -6.280	 -6.005
131.012	 -6.280	 -6.075
131.016	 -6.265	 -6.105
131.020	 -6.215	 -6.095
131.024	 -6.155	 -6.085
131.028	 -6.095	 -6.055
131.032	 -6.065	 -5.985
131.036	 -6.065	 -5.905
131.040	 -6.060	 -5.855
131.044	 -6.055	 -5.830
131.048	 -6.050	 -5.825
131.052	 -6.040	 -5.810
131.056	 -6.035	 -5.810
131.060	 -6.035	 -5.800
131.064	 -6.035	 -5.795
131.068	 -6.025	 -5.795
131.072	 -6.020	 -5.785
131.076	 -6.020	 -5.780
131.080	 -6.010	 -5.780
131.084	 -5.995	 -5.785
131.088	 -5.990	 -5.790
131.092	 -5.975	 -5.785
131.096	 -5.955	 -5.795
131.100	 -5.930	 -5.790
131.104	 -5.920	 -5.800
131.108	 -5.910	 -5.795
131.112	 -5.895	 -5.790
131.116	 -5.880	 -5.790
131.120	 -5.840	 -5.790
131.124	 -5.800	 -5.795
131.128	 -5.765	 -5.800
131.132	 -5.735	 -5.780
131.136	 -5.705	 -5.770
131.140	 -5.670	 -5.755
131.144	 -5.640	 -5.760
131.148	 -5.610	 -5.750
131.152	 -5.580	 -5.740
131.156	 -5.560	 -5.730
131.160	 -5.540	 -5.720
131.164	 -5.520	 -5.710
131.168	 -5.515	 -5.700
131.172	 -5.500	 -5.690
131.176	 -5.495	 -5.680
131.180	 -5.490	 -5.665
131.184	 -5.495	 -5.660
131.188	 -5.500	 -5.645
131.192	 -5.515	 -5.640
131.196	 -5.525	 -5.630
131.200	 -5.540	 -5.620
131.204	 -5.555	 -5.610
131.208	 -5.570	 -5.600
131.212	 -5.585	 -5.600
131.216	 -5.605	 -5.595
131.220	 -5.625	 -5.600
131.224	 -5.645	 -5.600
131.228	 -5.665	 -5.600
131.232	 -5.685	 -5.605
131.236	 -5.705	 -5.610
131.240	 -5.725	 -5.615
131.244	 -5.745	 -5.625
131.248	 -5.760	 -5.630
131.252	 -5.775	 -5.640
131.256	 -5.790	 -5.645
131.260	 -5.800	 -5.645
131.264	 -5.815	 -5.655
131.268	 -5.825	 -5.660
131.272	 -5.830	 -5.660
131.276	 -5.840	 -5.665
131.280	 -5.840	 -5.675
131.284	 -5.845	 -5.680
131.288	 -5.850	 -5.680
131.292	 -5.850	 -5.680
131.296	 -5.850	 -5.680
131.300	 -5.845	 -5.680
131.304	 -5.840	 -5.675
131.308	 -5.835	 -5.675
131.312	 -5.830	 -5.670
131.316	 -5.825	 -5.670
131.320	 -5.820	 -5.665
131.324	 -5.815	 -5.665
131.328	 -5.805	 -5.660
131.332	 -5.805	 -5.660
131.336	 -5.800	 -5.650
131.340	 -5.790	 -5.645
131.344	 -5.780	 -5.645
131.348	 -5.760	 -5.640
131.352	 -5.745	 -5.630
131.356	 -5.740	 -5.615
131.360	 -5.735	 -5.605
131.364	 -5.740	 -5.595
131.368	 -5.740	 -5.585
131.372	 -5.735	 -5.585
131.376	 -5.720	 -5.580
131.380	 -5.695	 -5.585
131.384	 -5.680	 -5.575
131.388	 -5.665	 -5.560
131.392	 -5.670	 -5.545
131.396	 -5.680	 -5.530
131.400	 -5.685	 -5.520
131.404	 -5.680	 -5.535
131.408	 -5.690	 -5.535
131.412	 -5.705	 -5.540
131.416	 -5.720	 -5.555
131.420	 -5.740	 -5.570
131.424	 -5.760	 -5.580
131.428	 -5.765	 -5.595
131.432	 -5.795	 -5.615
131.436	 -5.810	 -5.620
131.440	 -5.840	 -5.635
131.444	 -5.860	 -5.645
131.448	 -5.870	 -5.655
131.452	 -5.875	 -5.660
131.456	 -5.875	 -5.685
131.460	 -5.875	 -5.690
131.464	 -5.880	 -5.700
131.468	 -5.885	 -5.705
131.472	 -5.885	 -5.710
131.476	 -5.875	 -5.705
131.480	 -5.870	 -5.710
131.484	 -5.875	 -5.715
131.488	 -5.890	 -5.715
131.492	 -5.875	 -5.715
131.496	 -5.890	 -5.725
131.500	 -5.910	 -5.735
131.504	 -5.890	 -5.730
131.508	 -5.795	 -5.730
131.512	 -5.660	 -5.745
131.516	 -5.520	 -5.730
131.520	 -5.315	 -5.680
131.524	 -4.980	 -5.660
131.528	 -4.585	 -5.645
131.532	 -4.255	 -5.630
131.536	 -4.080	 -5.570
131.540	 -4.040	 -5.480
131.544	 -4.140	 -5.365
131.548	 -4.385	 -5.290
131.552	 -4.730	 -5.310
131.556	 -5.160	 -5.390
131.560	 -5.615	 -5.500
131.564	 -5.995	 -5.575
131.568	 -6.220	 -5.695
131.572	 -6.270	 -5.865
131.576	 -6.255	 -6.015
131.580	 -6.250	 -6.110
131.584	 -6.245	 -6.145
131.588	 -6.205	 -6.140
131.592	 -6.150	 -6.130
131.596	 -6.090	 -6.095
131.600	 -6.055	 -6.030
131.604	 -6.055	 -5.965
131.608	 -6.055	 -5.895
131.612	 -6.045	 -5.855
131.616	 -6.040	 -5.845
131.620	 -6.025	 -5.840
131.624	 -6.020	 -5.835
131.628	 -6.010	 -5.830
131.632	 -6.000	 -5.815
131.636	 -5.995	 -5.810
131.640	 -5.985	 -5.810
131.644	 -5.985	 -5.810
131.648	 -5.975	 -5.805
131.652	 -5.965	 -5.810
131.656	 -5.960	 -5.810
131.660	 -5.950	 -5.810
131.664	 -5.935	 -5.810
131.668	 -5.930	 -5.810
131.672	 -5.910	 -5.805
131.676	 -5.895	 -5.810
131.680	 -5.880	 -5.815
131.684	 -5.860	 -5.810
131.688	 -5.830	 -5.810
131.692	 -5.800	 -5.805
131.696	 -5.775	 -5.805
131.700	 -5.745	 -5.800
131.704	 -5.710	 -5.795
131.708	 -5.680	 -5.785
131.712	 -5.655	 -5.780
131.716	 -5.625	 -5.770
131.720	 -5.590	 -5.765
131.724	 -5.560	 -5.755
131.728	 -5.540	 -5.745
131.732	 -5.525	 -5.740
131.736	 -5.510	 -5.730
131.740	 -5.500	 -5.720
131.744	 -5.485	 -5.710
131.748	 -5.490	 -5.700
131.752	 -5.490	 -5.685
131.756	 -5.490	 -5.680
131.760	 -5.495	 -5.665
131.764	 -5.510	 -5.660
131.768	 -5.525	 -5.645
131.772	 -5.540	 -5.645
131.776	 -5.555	 -5.635
131.780	 -5.570	 -5.635
131.784	 -5.590	 -5.630
131.788	 -5.605	 -5.625
131.792	 -5.625	 -5.625
131.796	 -5.650	 -5.625
131.800	 -5.670	 -5.625
131.804	 -5.695	 -5.630
131.808	 -5.720	 -5.640
131.812	 -5.740	 -5.640
131.816	 -5.765	 -5.650
131.820	 -5.785	 -5.660
131.824	 -5.800	 -5.665
131.828	 -5.815	 -5.680
131.832	 -5.825	 -5.685
131.836	 -5.830	 -5.685
131.840	 -5.835	 -5.695
131.844	 -5.840	 -5.695
131.848	 -5.840	 -5.700
131.852	 -5.845	 -5.705
131.856	 -5.850	 -5.705
131.860	 -5.850	 -5.710
131.864	 -5.850	 -5.710
131.868	 -5.855	 -5.710
131.872	 -5.855	 -5.705
131.876	 -5.855	 -5.700
131.880	 -5.850	 -5.700
131.884	 -5.845	 -5.690
131.888	 -5.840	 -5.695
131.892	 -5.835	 -5.685
131.896	 -5.830	 -5.680
131.900	 -5.825	 -5.665
131.904	 -5.815	 -5.660
131.908	 -5.800	 -5.655
131.912	 -5.780	 -5.650
131.916	 -5.775	 -5.640
131.920	 -5.770	 -5.630
131.924	 -5.760	 -5.615
131.928	 -5.755	 -5.610
131.932	 -5.740	 -5.605
131.936	 -5.730	 -5.600
131.940	 -5.705	 -5.610
131.944	 -5.685	 -5.615
131.948	 -5.665	 -5.600
131.952	 -5.660	 -5.580
131.956	 -5.670	 -5.560
131.960	 -5.670	 -5.550
131.964	 -5.665	 -5.550
131.968	 -5.670	 -5.560
131.972	 -5.680	 -5.560
131.976	 -5.695	 -5.570
131.980	 -5.715	 -5.580
131.984	 -5.735	 -5.595
131.988	 -5.755	 -5.605
131.992	 -5.775	 -5.625
131.996	 -5.795	 -5.640
132.000	 -5.825	 -5.645
132.004	 -5.840	 -5.655
132.008	 -5.860	 -5.655
132.012	 -5.870	 -5.670
132.016	 -5.875	 -5.685
132.020	 -5.880	 -5.705
132.024	 -5.880	 -5.715
132.028	 -5.885	 -5.720
132.032	 -5.885	 -5.720
132.036	 -5.885	 -5.720
132.040	 -5.885	 -5.725
132.044	 -5.885	 -5.730
132.048	 -5.885	 -5.730
132.052	 -5.875	 -5.735
132.056	 -5.880	 -5.740
132.060	 -5.900	 -5.740
132.064	 -5.905	 -5.745
132.068	 -5.840	 -5.755
132.072	 -5.715	 -5.775
132.076	 -5.585	 -5.775
132.080	 -5.395	 -5.720
132.084	 -5.080	 -5.685
132.088	 -4.675	 -5.665
132.092	 -4.320	 -5.660
132.096	 -4.130	 -5.595
132.100	 -4.080	 -5.505
132.104	 -4.160	 -5.380
132.108	 -4.400	 -5.300
132.112	 -4.725	 -5.325
132.116	 -5.150	 -5.400
132.120	 -5.605	 -5.515
132.124	 -6.000	 -5.580
132.128	 -6.240	 -5.705
132.132	 -6.295	 -5.880
132.136	 -6.280	 -6.025
132.140	 -6.280	 -6.120
132.144	 -6.275	 -6.160
132.148	 -6.230	 -6.160
132.152	 -6.160	 -6.150
132.156	 -6.100	 -6.125
132.160	 -6.055	 -6.060
132.164	 -6.040	 -5.980
132.168	 -6.040	 -5.920
132.172	 -6.030	 -5.880
132.176	 -6.030	 -5.865
132.180	 -6.025	 -5.855
132.184	 -6.020	 -5.850
132.188	 -6.020	 -5.845
132.192	 -6.005	 -5.840
132.196	 -6.000	 -5.840
132.200	 -5.990	 -5.840
132.204	 -5.980	 -5.835
132.208	 -5.980	 -5.830
132.212	 -5.970	 -5.830
132.216	 -5.965	 -5.825
132.220	 -5.955	 -5.835
132.224	 -5.950	 -5.835
132.228	 -5.945	 -5.835
132.232	 -5.935	 -5.830
132.236	 -5.920	 -5.830
132.240	 -5.910	 -5.835
132.244	 -5.880	 -5.830
132.248	 -5.850	 -5.830
132.252	 -5.820	 -5.825
132.256	 -5.800	 -5.825
132.260	 -5.765	 -5.815
132.264	 -5.735	 -5.810
132.268	 -5.705	 -5.800
132.272	 -5.675	 -5.790
132.276	 -5.645	 -5.785
132.280	 -5.615	 -5.775
132.284	 -5.585	 -5.765
132.288	 -5.560	 -5.760
132.292	 -5.545	 -5.750
132.296	 -5.530	 -5.735
132.300	 -5.520	 -5.730
132.304	 -5.520	 -5.715
132.308	 -5.515	 -5.700
132.312	 -5.520	 -5.690
132.316	 -5.520	 -5.685
132.320	 -5.520	 -5.680
132.324	 -5.535	 -5.670
132.328	 -5.545	 -5.655
132.332	 -5.560	 -5.645
132.336	 -5.575	 -5.640
132.340	 -5.595	 -5.630
132.344	 -5.610	 -5.630
132.348	 -5.630	 -5.625
132.352	 -5.645	 -5.625
132.356	 -5.665	 -5.625
132.360	 -5.680	 -5.635
132.364	 -5.700	 -5.640
132.368	 -5.725	 -5.645
132.372	 -5.740	 -5.650
132.376	 -5.760	 -5.655
132.380	 -5.780	 -5.660
132.384	 -5.780	 -5.665
132.388	 -5.795	 -5.670
132.392	 -5.805	 -5.680
132.396	 -5.815	 -5.685
132.400	 -5.820	 -5.685
132.404	 -5.830	 -5.695
132.408	 -5.830	 -5.690
132.412	 -5.835	 -5.695
132.416	 -5.840	 -5.695
132.420	 -5.845	 -5.700
132.424	 -5.850	 -5.695
132.428	 -5.855	 -5.695
132.432	 -5.860	 -5.695
132.436	 -5.865	 -5.690
132.440	 -5.860	 -5.690
132.444	 -5.860	 -5.685
132.448	 -5.860	 -5.680
132.452	 -5.845	 -5.660
132.456	 -5.830	 -5.660
132.460	 -5.815	 -5.655
132.464	 -5.790	 -5.645
132.468	 -5.790	 -5.630
132.472	 -5.780	 -5.620
132.476	 -5.770	 -5.605
132.480	 -5.770	 -5.600
132.484	 -5.770	 -5.595
132.488	 -5.760	 -5.590
132.492	 -5.740	 -5.595
132.496	 -5.720	 -5.590
132.500	 -5.700	 -5.580
132.504	 -5.690	 -5.560
132.508	 -5.690	 -5.535
132.512	 -5.690	 -5.520
132.516	 -5.690	 -5.530
132.520	 -5.690	 -5.535
132.524	 -5.700	 -5.535
132.528	 -5.720	 -5.540
132.532	 -5.740	 -5.550
132.536	 -5.760	 -5.560
132.540	 -5.775	 -5.570
132.544	 -5.785	 -5.585
132.548	 -5.805	 -5.595
132.552	 -5.835	 -5.600
132.556	 -5.850	 -5.615
132.560	 -5.860	 -5.630
132.564	 -5.860	 -5.645
132.568	 -5.860	 -5.660
132.572	 -5.865	 -5.675
132.576	 -5.875	 -5.685
132.580	 -5.880	 -5.695
132.584	 -5.880	 -5.700
132.588	 -5.880	 -5.705
132.592	 -5.880	 -5.710
132.596	 -5.880	 -5.715
132.600	 -5.870	 -5.725
132.604	 -5.870	 -5.720
132.608	 -5.880	 -5.725
132.612	 -5.900	 -5.720
132.616	 -5.920	 -5.730
132.620	 -5.885	 -5.735
132.624	 -5.770	 -5.755
132.628	 -5.620	 -5.755
132.632	 -5.445	 -5.715
132.636	 -5.160	 -5.665
132.640	 -4.765	 -5.650
132.644	 -4.385	 -5.645
132.648	 -4.130	 -5.605
132.652	 -4.035	 -5.515
132.656	 -4.035	 -5.410
132.660	 -4.200	 -5.290
132.664	 -4.490	 -5.275
132.668	 -4.900	 -5.300
132.672	 -5.360	 -5.415
132.676	 -5.795	 -5.495
132.680	 -6.120	 -5.595
132.684	 -6.275	 -5.745
132.688	 -6.285	 -5.895
132.692	 -6.285	 -6.010
132.696	 -6.280	 -6.085
132.700	 -6.275	 -6.110
132.704	 -6.240	 -6.095
132.708	 -6.190	 -6.085
132.712	 -6.130	 -6.070
132.716	 -6.080	 -6.010
132.720	 -6.070	 -5.945
132.724	 -6.060	 -5.895
132.728	 -6.060	 -5.855
132.732	 -6.050	 -5.840
132.736	 -6.055	 -5.830
132.740	 -6.050	 -5.825
132.744	 -6.045	 -5.825
132.748	 -6.045	 -5.815
132.752	 -6.040	 -5.810
132.756	 -6.035	 -5.810
132.760	 -6.020	 -5.815
132.764	 -6.015	 -5.810
132.768	 -6.005	 -5.810
132.772	 -5.990	 -5.810
132.776	 -5.975	 -5.820
132.780	 -5.965	 -5.820
132.784	 -5.955	 -5.825
132.788	 -5.925	 -5.820
132.792	 -5.905	 -5.825
132.796	 -5.880	 -5.820
132.800	 -5.860	 -5.825
132.804	 -5.840	 -5.825
132.808	 -5.815	 -5.825
132.812	 -5.780	 -5.815
132.816	 -5.760	 -5.815
132.820	 -5.740	 -5.815
132.824	 -5.710	 -5.810
132.828	 -5.680	 -5.800
132.832	 -5.650	 -5.790
132.836	 -5.630	 -5.780
132.840	 -5.615	 -5.775
132.844	 -5.595	 -5.770
132.848	 -5.580	 -5.755
132.852	 -5.570	 -5.750
132.856	 -5.565	 -5.735
132.860	 -5.565	 -5.730
132.864	 -5.570	 -5.720
132.868	 -5.570	 -5.705
132.872	 -5.560	 -5.695
132.876	 -5.570	 -5.680
132.880	 -5.575	 -5.670
132.884	 -5.600	 -5.660
132.888	 -5.625	 -5.650
132.892	 -5.625	 -5.640
132.896	 -5.630	 -5.635
132.900	 -5.640	 -5.625
132.904	 -5.655	 -5.625
132.908	 -5.675	 -5.625
132.912	 -5.695	 -5.625
132.916	 -5.715	 -5.625
132.920	 -5.740	 -5.630
132.924	 -5.760	 -5.635
132.928	 -5.775	 -5.640
132.932	 -5.795	 -5.645
132.936	 -5.810	 -5.650
132.940	 -5.815	 -5.650
132.944	 -5.820	 -5.655
132.948	 -5.835	 -5.660
132.952	 -5.835	 -5.660
132.956	 -5.845	 -5.660
132.960	 -5.855	 -5.675
132.964	 -5.865	 -5.675
132.968	 -5.870	 -5.675
132.972	 -5.865	 -5.675
132.976	 -5.860	 -5.665
132.980	 -5.850	 -5.670
132.984	 -5.850	 -5.680
132.988	 -5.840	 -5.675
132.992	 -5.840	 -5.665
132.996	 -5.840	 -5.665
133.000	 -5.835	 -5.660
133.004	 -5.845	 -5.660
133.008	 -5.845	 -5.650
133.012	 -5.840	 -5.645
133.016	 -5.820	 -5.645
133.020	 -5.800	 -5.640
133.024	 -5.785	 -5.635
133.028	 -5.775	 -5.615
133.032	 -5.770	 -5.600
133.036	 -5.770	 -5.595
133.040	 -5.760	 -5.590
133.044	 -5.750	 -5.585
133.048	 -5.730	 -5.580
133.052	 -5.705	 -5.580
133.056	 -5.675	 -5.575
133.060	 -5.660	 -5.570
133.064	 -5.680	 -5.555
133.068	 -5.685	 -5.530
133.072	 -5.690	 -5.515
133.076	 -5.690	 -5.515
133.080	 -5.690	 -5.530
133.084	 -5.695	 -5.530
133.088	 -5.705	 -5.535
133.092	 -5.725	 -5.540
133.096	 -5.750	 -5.555
133.100	 -5.770	 -5.565
133.104	 -5.785	 -5.585
133.108	 -5.805	 -5.595
133.112	 -5.835	 -5.600
133.116	 -5.860	 -5.615
133.120	 -5.880	 -5.630
133.124	 -5.880	 -5.645
133.128	 -5.870	 -5.655
133.132	 -5.875	 -5.670
133.136	 -5.875	 -5.675
133.140	 -5.885	 -5.685
133.144	 -5.880	 -5.685
133.148	 -5.875	 -5.690
133.152	 -5.870	 -5.685
133.156	 -5.870	 -5.690
133.160	 -5.870	 -5.700
133.164	 -5.875	 -5.700
133.168	 -5.890	 -5.705
133.172	 -5.905	 -5.710
133.176	 -5.900	 -5.715
133.180	 -5.810	 -5.730
133.184	 -5.665	 -5.745
133.188	 -5.520	 -5.730
133.192	 -5.295	 -5.680
133.196	 -4.940	 -5.645
133.200	 -4.540	 -5.635
133.204	 -4.215	 -5.610
133.208	 -4.045	 -5.545
133.212	 -3.995	 -5.450
133.216	 -4.045	 -5.340
133.220	 -4.260	 -5.285
133.224	 -4.585	 -5.295
133.228	 -5.025	 -5.385
133.232	 -5.465	 -5.480
133.236	 -5.880	 -5.540
133.240	 -6.165	 -5.660
133.244	 -6.260	 -5.790
133.248	 -6.250	 -5.915
133.252	 -6.235	 -6.000
133.256	 -6.230	 -6.045
133.260	 -6.230	 -6.050
133.264	 -6.190	 -6.045
133.268	 -6.150	 -6.025
133.272	 -6.105	 -6.000
133.276	 -6.075	 -5.940
133.280	 -6.060	 -5.890
133.284	 -6.055	 -5.845
133.288	 -6.045	 -5.820
133.292	 -6.035	 -5.810
133.296	 -6.035	 -5.800
133.300	 -6.025	 -5.795
133.304	 -6.020	 -5.785
133.308	 -6.005	 -5.785
133.312	 -6.005	 -5.785
133.316	 -6.005	 -5.780
133.320	 -6.000	 -5.790
133.324	 -6.000	 -5.785
133.328	 -5.980	 -5.785
133.332	 -5.975	 -5.785
133.336	 -5.965	 -5.795
133.340	 -5.950	 -5.790
133.344	 -5.935	 -5.785
133.348	 -5.920	 -5.790
133.352	 -5.900	 -5.785
133.356	 -5.880	 -5.785
133.360	 -5.855	 -5.785
133.364	 -5.830	 -5.785
133.368	 -5.810	 -5.785
133.372	 -5.780	 -5.775
133.376	 -5.750	 -5.770
133.380	 -5.715	 -5.770
133.384	 -5.690	 -5.760
133.388	 -5.660	 -5.755
133.392	 -5.635	 -5.750
133.396	 -5.600	 -5.745
133.400	 -5.580	 -5.730
133.404	 -5.565	 -5.720
133.408	 -5.560	 -5.715
133.412	 -5.550	 -5.700
133.416	 -5.540	 -5.695
133.420	 -5.530	 -5.685
133.424	 -5.520	 -5.675
133.428	 -5.520	 -5.660
133.432	 -5.530	 -5.650
133.436	 -5.535	 -5.645
133.440	 -5.550	 -5.635
133.444	 -5.565	 -5.630
133.448	 -5.590	 -5.615
133.452	 -5.605	 -5.605
133.456	 -5.620	 -5.605
133.460	 -5.640	 -5.605
133.464	 -5.660	 -5.605
133.468	 -5.680	 -5.600
133.472	 -5.710	 -5.600
133.476	 -5.735	 -5.600
133.480	 -5.755	 -5.605
133.484	 -5.770	 -5.610
133.488	 -5.780	 -5.615
133.492	 -5.795	 -5.615
133.496	 -5.805	 -5.625
133.500	 -5.815	 -5.625
133.504	 -5.820	 -5.630
133.508	 -5.835	 -5.630
133.512	 -5.840	 -5.640
133.516	 -5.840	 -5.640
133.520	 -5.845	 -5.650
133.524	 -5.850	 -5.650
133.528	 -5.855	 -5.655
133.532	 -5.855	 -5.650
133.536	 -5.855	 -5.650
133.540	 -5.855	 -5.650
133.544	 -5.855	 -5.650
133.548	 -5.850	 -5.645
133.552	 -5.845	 -5.645
133.556	 -5.845	 -5.640
133.560	 -5.840	 -5.635
133.564	 -5.840	 -5.625
133.568	 -5.840	 -5.620
133.572	 -5.835	 -5.615
133.576	 -5.825	 -5.605
133.580	 -5.800	 -5.600
133.584	 -5.780	 -5.590
133.588	 -5.765	 -5.580
133.592	 -5.760	 -5.565
133.596	 -5.760	 -5.565
133.600	 -5.750	 -5.560
133.604	 -5.740	 -5.560
133.608	 -5.725	 -5.555
133.612	 -5.695	 -5.555
133.616	 -5.670	 -5.550
133.620	 -5.650	 -5.535
133.624	 -5.660	 -5.515
133.628	 -5.660	 -5.490
133.632	 -5.660	 -5.490
133.636	 -5.660	 -5.500
133.640	 -5.670	 -5.500
133.644	 -5.680	 -5.500
133.648	 -5.695	 -5.515
133.652	 -5.715	 -5.525
133.656	 -5.730	 -5.535
133.660	 -5.755	 -5.560
133.664	 -5.780	 -5.570
133.668	 -5.810	 -5.580
133.672	 -5.845	 -5.595
133.676	 -5.870	 -5.600
133.680	 -5.880	 -5.615
133.684	 -5.880	 -5.630
133.688	 -5.880	 -5.650
133.692	 -5.880	 -5.660
133.696	 -5.880	 -5.665
133.700	 -5.875	 -5.665
133.704	 -5.875	 -5.675
133.708	 -5.875	 -5.680
133.712	 -5.870	 -5.685
133.716	 -5.870	 -5.685
133.720	 -5.870	 -5.695
133.724	 -5.875	 -5.690
133.728	 -5.890	 -5.700
133.732	 -5.910	 -5.705
133.736	 -5.875	 -5.710
133.740	 -5.765	 -5.730
133.744	 -5.620	 -5.730
133.748	 -5.455	 -5.680
133.752	 -5.170	 -5.645
133.756	 -4.765	 -5.630
133.760	 -4.375	 -5.625
133.764	 -4.125	 -5.575
133.768	 -4.025	 -5.490
133.772	 -4.025	 -5.380
133.776	 -4.195	 -5.300
133.780	 -4.480	 -5.310
133.784	 -4.900	 -5.380
133.788	 -5.365	 -5.490
133.792	 -5.805	 -5.565
133.796	 -6.120	 -5.660
133.800	 -6.260	 -5.815
133.804	 -6.245	 -5.955
133.808	 -6.240	 -6.045
133.812	 -6.240	 -6.075
133.816	 -6.220	 -6.085
133.820	 -6.175	 -6.070
133.824	 -6.115	 -6.055
133.828	 -6.060	 -6.005
133.832	 -6.040	 -5.945
133.836	 -6.040	 -5.880
133.840	 -6.030	 -5.845
133.844	 -6.025	 -5.825
133.848	 -6.025	 -5.825
133.852	 -6.015	 -5.810
133.856	 -6.010	 -5.810
133.860	 -6.000	 -5.810
133.864	 -6.000	 -5.805
133.868	 -6.000	 -5.800
133.872	 -6.000	 -5.805
133.876	 -6.000	 -5.810
133.880	 -5.995	 -5.810
133.884	 -5.990	 -5.805
133.888	 -5.980	 -5.805
133.892	 -5.975	 -5.810
133.896	 -5.960	 -5.810
133.900	 -5.940	 -5.810
133.904	 -5.920	 -5.805
133.908	 -5.905	 -5.800
133.912	 -5.880	 -5.805
133.916	 -5.850	 -5.810
133.920	 -5.825	 -5.805
133.924	 -5.795	 -5.800
133.928	 -5.765	 -5.800
133.932	 -5.735	 -5.795
133.936	 -5.710	 -5.790
133.940	 -5.680	 -5.785
133.944	 -5.655	 -5.775
133.948	 -5.630	 -5.765
133.952	 -5.610	 -5.755
133.956	 -5.585	 -5.750
133.960	 -5.560	 -5.745
133.964	 -5.550	 -5.735
133.968	 -5.535	 -5.720
133.972	 -5.520	 -5.715
133.976	 -5.520	 -5.705
133.980	 -5.510	 -5.695
133.984	 -5.505	 -5.685
133.988	 -5.510	 -5.675
133.992	 -5.505	 -5.670
133.996	 -5.520	 -5.665
134.000	 -5.530	 -5.660
134.004	 -5.550	 -5.650
134.008	 -5.565	 -5.650
134.012	 -5.585	 -5.645
134.016	 -5.605	 -5.645
134.020	 -5.630	 -5.645
134.024	 -5.650	 -5.645
134.028	 -5.665	 -5.645
134.032	 -5.685	 -5.650
134.036	 -5.700	 -5.660
134.040	 -5.710	 -5.660
134.044	 -5.730	 -5.665
134.048	 -5.740	 -5.675
134.052	 -5.750	 -5.685
134.056	 -5.765	 -5.685
134.060	 -5.775	 -5.690
134.064	 -5.785	 -5.690
134.068	 -5.795	 -5.705
134.072	 -5.800	 -5.705
134.076	 -5.810	 -5.710
134.080	 -5.820	 -5.710
134.084	 -5.825	 -5.710
134.088	 -5.835	 -5.710
134.092	 -5.835	 -5.710
134.096	 -5.830	 -5.715
134.100	 -5.830	 -5.710
134.104	 -5.825	 -5.705
134.108	 -5.820	 -5.700
134.112	 -5.820	 -5.695
134.116	 -5.825	 -5.695
134.120	 -5.820	 -5.685
134.124	 -5.810	 -5.685
134.128	 -5.805	 -5.680
134.132	 -5.805	 -5.675
134.136	 -5.800	 -5.665
134.140	 -5.785	 -5.665
134.144	 -5.770	 -5.660
134.148	 -5.755	 -5.655
134.152	 -5.745	 -5.650
134.156	 -5.740	 -5.635
134.160	 -5.730	 -5.615
134.164	 -5.735	 -5.605
134.168	 -5.735	 -5.600
134.172	 -5.725	 -5.600
134.176	 -5.710	 -5.600
134.180	 -5.685	 -5.595
134.184	 -5.665	 -5.585
134.188	 -5.640	 -5.575
134.192	 -5.645	 -5.555
134.196	 -5.640	 -5.540
134.200	 -5.635	 -5.540
134.204	 -5.635	 -5.555
134.208	 -5.645	 -5.560
134.212	 -5.660	 -5.565
134.216	 -5.680	 -5.575
134.220	 -5.690	 -5.585
134.224	 -5.710	 -5.595
134.228	 -5.730	 -5.615
134.232	 -5.750	 -5.630
134.236	 -5.770	 -5.640
134.240	 -5.800	 -5.645
134.244	 -5.815	 -5.655
134.248	 -5.820	 -5.665
134.252	 -5.825	 -5.685
134.256	 -5.830	 -5.700
134.260	 -5.830	 -5.710
134.264	 -5.830	 -5.715
134.268	 -5.830	 -5.725
134.272	 -5.830	 -5.730
134.276	 -5.835	 -5.730
134.280	 -5.840	 -5.730
134.284	 -5.840	 -5.730
134.288	 -5.840	 -5.735
134.292	 -5.840	 -5.735
134.296	 -5.865	 -5.740
134.300	 -5.875	 -5.740
134.304	 -5.825	 -5.740
134.308	 -5.710	 -5.755
134.312	 -5.580	 -5.755
134.316	 -5.415	 -5.705
134.320	 -5.125	 -5.665
134.324	 -4.720	 -5.650
134.328	 -4.335	 -5.640
134.332	 -4.095	 -5.585
134.336	 -4.010	 -5.500
134.340	 -4.035	 -5.380
134.344	 -4.235	 -5.300
134.348	 -4.535	 -5.335
134.352	 -4.945	 -5.420
134.356	 -5.405	 -5.530
134.360	 -5.840	 -5.600
134.364	 -6.130	 -5.695
134.368	 -6.240	 -5.855
134.372	 -6.235	 -6.005
134.376	 -6.235	 -6.090
134.380	 -6.230	 -6.115
134.384	 -6.195	 -6.115
134.388	 -6.135	 -6.105
134.392	 -6.070	 -6.070
134.396	 -6.020	 -6.005
134.400	 -6.000	 -5.940
134.404	 -6.000	 -5.880
134.408	 -5.990	 -5.850
134.412	 -5.985	 -5.840
134.416	 -5.985	 -5.825
134.420	 -5.980	 -5.820
134.424	 -5.980	 -5.810
134.428	 -5.975	 -5.810
134.432	 -5.970	 -5.810
134.436	 -5.965	 -5.805
134.440	 -5.960	 -5.800
134.444	 -5.960	 -5.800
134.448	 -5.955	 -5.805
134.452	 -5.945	 -5.805
134.456	 -5.940	 -5.805
134.460	 -5.930	 -5.805
134.464	 -5.920	 -5.805
134.468	 -5.910	 -5.805
134.472	 -5.895	 -5.810
134.476	 -5.875	 -5.810
134.480	 -5.855	 -5.805
134.484	 -5.835	 -5.800
134.488	 -5.805	 -5.795
134.492	 -5.775	 -5.795
134.496	 -5.745	 -5.785
134.500	 -5.715	 -5.780
134.504	 -5.680	 -5.770
134.508	 -5.640	 -5.755
134.512	 -5.610	 -5.750
134.516	 -5.580	 -5.735
134.520	 -5.555	 -5.725
134.524	 -5.535	 -5.720
134.528	 -5.515	 -5.710
134.532	 -5.500	 -5.700
134.536	 -5.485	 -5.690
134.540	 -5.480	 -5.680
134.544	 -5.480	 -5.670
134.548	 -5.475	 -5.660
134.552	 -5.480	 -5.650
134.556	 -5.490	 -5.645
134.560	 -5.500	 -5.630
134.564	 -5.515	 -5.625
134.568	 -5.530	 -5.625
134.572	 -5.545	 -5.610
134.576	 -5.565	 -5.610
134.580	 -5.580	 -5.600
134.584	 -5.605	 -5.600
134.588	 -5.625	 -5.605
134.592	 -5.645	 -5.605
134.596	 -5.665	 -5.610
134.600	 -5.680	 -5.615
134.604	 -5.700	 -5.620
134.608	 -5.715	 -5.625
134.612	 -5.725	 -5.640
134.616	 -5.740	 -5.645
134.620	 -5.755	 -5.645
134.624	 -5.765	 -5.650
134.628	 -5.770	 -5.660
134.632	 -5.780	 -5.670
134.636	 -5.795	 -5.675
134.640	 -5.800	 -5.680
134.644	 -5.805	 -5.685
134.648	 -5.810	 -5.685
134.652	 -5.815	 -5.685
134.656	 -5.820	 -5.690
134.660	 -5.825	 -5.690
134.664	 -5.830	 -5.690
134.668	 -5.825	 -5.685
134.672	 -5.830	 -5.685
134.676	 -5.830	 -5.680
134.680	 -5.830	 -5.675
134.684	 -5.830	 -5.665
134.688	 -5.830	 -5.665
134.692	 -5.835	 -5.660
134.696	 -5.835	 -5.660
134.700	 -5.830	 -5.645
134.704	 -5.825	 -5.645
134.708	 -5.820	 -5.630
134.712	 -5.815	 -5.630
134.716	 -5.805	 -5.620
134.720	 -5.795	 -5.615
134.724	 -5.780	 -5.615
134.728	 -5.765	 -5.610
134.732	 -5.755	 -5.595
134.736	 -5.745	 -5.590
134.740	 -5.740	 -5.575
134.744	 -5.745	 -5.570
134.748	 -5.740	 -5.570
134.752	 -5.735	 -5.565
134.756	 -5.715	 -5.570
134.760	 -5.690	 -5.565
134.764	 -5.680	 -5.550
134.768	 -5.690	 -5.530
134.772	 -5.690	 -5.515
134.776	 -5.690	 -5.520
134.780	 -5.695	 -5.525
134.784	 -5.700	 -5.530
134.788	 -5.705	 -5.535
134.792	 -5.710	 -5.545
134.796	 -5.720	 -5.555
134.800	 -5.725	 -5.570
134.804	 -5.750	 -5.585
134.808	 -5.775	 -5.600
134.812	 -5.795	 -5.610
134.816	 -5.825	 -5.620
134.820	 -5.840	 -5.630
134.824	 -5.855	 -5.645
134.828	 -5.855	 -5.660
134.832	 -5.860	 -5.665
134.836	 -5.860	 -5.680
134.840	 -5.860	 -5.685
134.844	 -5.865	 -5.695
134.848	 -5.860	 -5.700
134.852	 -5.860	 -5.710
134.856	 -5.860	 -5.710
134.860	 -5.855	 -5.715
134.864	 -5.860	 -5.720
134.868	 -5.860	 -5.720
134.872	 -5.875	 -5.725
134.876	 -5.895	 -5.725
134.880	 -5.885	 -5.730
134.884	 -5.810	 -5.735
134.888	 -5.680	 -5.750
134.892	 -5.545	 -5.720
134.896	 -5.335	 -5.665
134.900	 -4.990	 -5.645
134.904	 -4.580	 -5.650
134.908	 -4.245	 -5.625
134.912	 -4.080	 -5.550
134.916	 -4.050	 -5.445
134.920	 -4.155	 -5.330
134.924	 -4.400	 -5.305
134.928	 -4.750	 -5.360
134.932	 -5.180	 -5.465
134.936	 -5.635	 -5.545
134.940	 -6.010	 -5.615
134.944	 -6.230	 -5.745
134.948	 -6.285	 -5.920
134.952	 -6.270	 -6.035
134.956	 -6.270	 -6.105
134.960	 -6.270	 -6.125
134.964	 -6.235	 -6.115
134.968	 -6.180	 -6.110
134.972	 -6.120	 -6.075
134.976	 -6.080	 -6.005
134.980	 -6.060	 -5.930
134.984	 -6.060	 -5.865
134.988	 -6.050	 -5.845
134.992	 -6.045	 -5.830
134.996	 -6.040	 -5.815
135.000	 -6.030	 -5.810
135.004	 -6.030	 -5.805
135.008	 -6.015	 -5.800
135.012	 -6.010	 -5.800
135.016	 -6.000	 -5.800
135.020	 -6.000	 -5.800
135.024	 -5.995	 -5.800
135.028	 -5.990	 -5.805
135.032	 -5.975	 -5.805
135.036	 -5.970	 -5.800
135.040	 -5.970	 -5.800
135.044	 -5.955	 -5.800
135.048	 -5.945	 -5.800
135.052	 -5.930	 -5.800
135.056	 -5.910	 -5.800
135.060	 -5.885	 -5.795
135.064	 -5.860	 -5.795
135.068	 -5.830	 -5.790
135.072	 -5.800	 -5.785
135.076	 -5.775	 -5.780
135.080	 -5.740	 -5.770
135.084	 -5.705	 -5.770
135.088	 -5.680	 -5.760
135.092	 -5.645	 -5.755
135.096	 -5.630	 -5.745
135.100	 -5.620	 -5.735
135.104	 -5.600	 -5.730
135.108	 -5.575	 -5.720
135.112	 -5.560	 -5.715
135.116	 -5.545	 -5.705
135.120	 -5.535	 -5.695
135.124	 -5.520	 -5.680
135.128	 -5.520	 -5.675
135.132	 -5.515	 -5.665
135.136	 -5.520	 -5.655
135.140	 -5.525	 -5.645
135.144	 -5.540	 -5.635
135.148	 -5.555	 -5.630
135.152	 -5.570	 -5.630
135.156	 -5.590	 -5.615
135.160	 -5.605	 -5.615
135.164	 -5.625	 -5.605
135.168	 -5.645	 -5.610
135.172	 -5.670	 -5.610
135.176	 -5.700	 -5.615
135.180	 -5.725	 -5.620
135.184	 -5.750	 -5.625
135.188	 -5.765	 -5.630
135.192	 -5.785	 -5.640
135.196	 -5.800	 -5.645
135.200	 -5.815	 -5.645
135.204	 -5.825	 -5.660
135.208	 -5.830	 -5.665
135.212	 -5.825	 -5.670
135.216	 -5.830	 -5.675
135.220	 -5.840	 -5.680
135.224	 -5.840	 -5.685
135.228	 -5.845	 -5.695
135.232	 -5.860	 -5.695
135.236	 -5.865	 -5.700
135.240	 -5.865	 -5.700
135.244	 -5.865	 -5.700
135.248	 -5.860	 -5.695
135.252	 -5.865	 -5.695
135.256	 -5.860	 -5.695
135.260	 -5.870	 -5.685
135.264	 -5.870	 -5.685
135.268	 -5.865	 -5.680
135.272	 -5.870	 -5.675
135.276	 -5.865	 -5.670
135.280	 -5.860	 -5.660
135.284	 -5.865	 -5.650
135.288	 -5.855	 -5.650
135.292	 -5.845	 -5.645
135.296	 -5.845	 -5.635
135.300	 -5.840	 -5.630
135.304	 -5.840	 -5.625
135.308	 -5.830	 -5.625
135.312	 -5.825	 -5.620
135.316	 -5.815	 -5.605
135.320	 -5.805	 -5.595
135.324	 -5.800	 -5.585
135.328	 -5.785	 -5.585
135.332	 -5.785	 -5.580
135.336	 -5.780	 -5.580
135.340	 -5.760	 -5.575
135.344	 -5.735	 -5.575
135.348	 -5.715	 -5.575
135.352	 -5.705	 -5.565
135.356	 -5.705	 -5.540
135.360	 -5.715	 -5.525
135.364	 -5.720	 -5.525
135.368	 -5.725	 -5.535
135.372	 -5.735	 -5.540
135.376	 -5.755	 -5.540
135.380	 -5.780	 -5.555
135.384	 -5.800	 -5.560
135.388	 -5.800	 -5.580
135.392	 -5.815	 -5.595
135.396	 -5.835	 -5.605
135.400	 -5.850	 -5.615
135.404	 -5.870	 -5.625
135.408	 -5.890	 -5.640
135.412	 -5.900	 -5.645
135.416	 -5.900	 -5.660
135.420	 -5.895	 -5.665
135.424	 -5.890	 -5.680
135.428	 -5.895	 -5.685
135.432	 -5.895	 -5.695
135.436	 -5.895	 -5.705
135.440	 -5.885	 -5.705
135.444	 -5.885	 -5.710
135.448	 -5.885	 -5.710
135.452	 -5.880	 -5.715
135.456	 -5.880	 -5.715
135.460	 -5.905	 -5.715
135.464	 -5.920	 -5.725
135.468	 -5.875	 -5.730
135.472	 -5.760	 -5.745
135.476	 -5.620	 -5.740
135.480	 -5.430	 -5.695
135.484	 -5.125	 -5.660
135.488	 -4.720	 -5.655
135.492	 -4.355	 -5.645
135.496	 -4.140	 -5.585
135.500	 -4.065	 -5.490
135.504	 -4.095	 -5.380
135.508	 -4.290	 -5.305
135.512	 -4.620	 -5.325
135.516	 -5.065	 -5.405
135.520	 -5.535	 -5.510
135.524	 -5.960	 -5.580
135.528	 -6.230	 -5.695
135.532	 -6.315	 -5.845
135.536	 -6.300	 -5.980
135.540	 -6.295	 -6.060
135.544	 -6.290	 -6.095
135.548	 -6.260	 -6.090
135.552	 -6.205	 -6.075
135.556	 -6.145	 -6.060
135.560	 -6.095	 -6.005
135.564	 -6.075	 -5.935
135.568	 -6.075	 -5.880
135.572	 -6.080	 -5.840
135.576	 -6.065	 -5.820
135.580	 -6.060	 -5.815
135.584	 -6.055	 -5.810
135.588	 -6.055	 -5.805
135.592	 -6.045	 -5.795
135.596	 -6.040	 -5.790
135.600	 -6.035	 -5.790
135.604	 -6.035	 -5.790
135.608	 -6.030	 -5.790
135.612	 -6.030	 -5.790
135.616	 -6.025	 -5.790
135.620	 -6.025	 -5.790
135.624	 -6.015	 -5.790
135.628	 -6.000	 -5.795
135.632	 -5.980	 -5.795
135.636	 -5.945	 -5.795
135.640	 -5.920	 -5.800
135.644	 -5.900	 -5.800
135.648	 -5.870	 -5.795
135.652	 -5.845	 -5.790
135.656	 -5.820	 -5.785
135.660	 -5.785	 -5.785
135.664	 -5.760	 -5.775
135.668	 -5.725	 -5.770
135.672	 -5.700	 -5.770
135.676	 -5.670	 -5.755
135.680	 -5.650	 -5.745
135.684	 -5.635	 -5.735
135.688	 -5.605	 -5.730
135.692	 -5.580	 -5.720
135.696	 -5.560	 -5.715
135.700	 -5.555	 -5.705
135.704	 -5.550	 -5.690
135.708	 -5.545	 -5.685
135.712	 -5.550	 -5.675
135.716	 -5.545	 -5.660
135.720	 -5.560	 -5.655
135.724	 -5.575	 -5.645
135.728	 -5.590	 -5.640
135.732	 -5.600	 -5.630
135.736	 -5.615	 -5.615
135.740	 -5.635	 -5.610
135.744	 -5.650	 -5.605
135.748	 -5.670	 -5.605
135.752	 -5.685	 -5.605
135.756	 -5.700	 -5.600
135.760	 -5.720	 -5.600
135.764	 -5.740	 -5.605
135.768	 -5.755	 -5.605
135.772	 -5.775	 -5.615
135.776	 -5.790	 -5.615
135.780	 -5.805	 -5.620
135.784	 -5.820	 -5.625
135.788	 -5.835	 -5.630
135.792	 -5.850	 -5.640
135.796	 -5.865	 -5.645
135.800	 -5.875	 -5.645
135.804	 -5.880	 -5.655
135.808	 -5.885	 -5.660
135.812	 -5.890	 -5.660
135.816	 -5.895	 -5.660
135.820	 -5.890	 -5.665
135.824	 -5.890	 -5.665
135.828	 -5.890	 -5.665
135.832	 -5.890	 -5.660
135.836	 -5.880	 -5.660
135.840	 -5.870	 -5.655
135.844	 -5.865	 -5.655
135.848	 -5.860	 -5.655
135.852	 -5.850	 -5.645
135.856	 -5.850	 -5.640
135.860	 -5.850	 -5.630
135.864	 -5.845	 -5.630
135.868	 -5.840	 -5.625
135.872	 -5.840	 -5.620
135.876	 -5.840	 -5.610
135.880	 -5.835	 -5.610
135.884	 -5.820	 -5.605
135.888	 -5.815	 -5.605
135.892	 -5.805	 -5.600
135.896	 -5.800	 -5.600
135.900	 -5.780	 -5.600
135.904	 -5.770	 -5.600
135.908	 -5.770	 -5.595
135.912	 -5.770	 -5.580
135.916	 -5.760	 -5.570
135.920	 -5.765	 -5.570
135.924	 -5.765	 -5.575
135.928	 -5.760	 -5.580
135.932	 -5.750	 -5.575
135.936	 -5.725	 -5.565
135.940	 -5.720	 -5.560
135.944	 -5.720	 -5.540
135.948	 -5.730	 -5.525
135.952	 -5.725	 -5.525
135.956	 -5.720	 -5.530
135.960	 -5.730	 -5.530
135.964	 -5.740	 -5.540
135.968	 -5.755	 -5.560
135.972	 -5.765	 -5.570
135.976	 -5.780	 -5.580
135.980	 -5.800	 -5.595
135.984	 -5.815	 -5.600
135.988	 -5.835	 -5.615
135.992	 -5.860	 -5.625
135.996	 -5.880	 -5.630
136.000	 -5.885	 -5.650
136.004	 -5.890	 -5.660
136.008	 -5.895	 -5.685
136.012	 -5.900	 -5.690
136.016	 -5.900	 -5.695
136.020	 -5.900	 -5.700
136.024	 -5.900	 -5.710
136.028	 -5.885	 -5.710
136.032	 -5.880	 -5.715
136.036	 -5.875	 -5.720
136.040	 -5.865	 -5.720
136.044	 -5.870	 -5.730
136.048	 -5.890	 -5.730
136.052	 -5.895	 -5.735
136.056	 -5.820	 -5.740
136.060	 -5.680	 -5.755
136.064	 -5.530	 -5.745
136.068	 -5.300	 -5.690
136.072	 -4.925	 -5.665
136.076	 -4.520	 -5.660
136.080	 -4.215	 -5.630
136.084	 -4.065	 -5.560
136.088	 -4.040	 -5.465
136.092	 -4.160	 -5.350
136.096	 -4.415	 -5.340
136.100	 -4.780	 -5.390
136.104	 -5.225	 -5.500
136.108	 -5.670	 -5.575
136.112	 -6.035	 -5.645
136.116	 -6.240	 -5.770
136.120	 -6.275	 -5.925
136.124	 -6.260	 -6.045
136.128	 -6.260	 -6.110
136.132	 -6.265	 -6.125
136.136	 -6.230	 -6.115
136.140	 -6.170	 -6.095
136.144	 -6.110	 -6.075
136.148	 -6.060	 -6.015
136.152	 -6.045	 -5.945
136.156	 -6.045	 -5.880
136.160	 -6.040	 -5.845
136.164	 -6.030	 -5.835
136.168	 -6.025	 -5.830
136.172	 -6.015	 -5.820
136.176	 -6.015	 -5.815
136.180	 -6.005	 -5.810
136.184	 -6.000	 -5.810
136.188	 -6.000	 -5.805
136.192	 -5.995	 -5.800
136.196	 -5.990	 -5.800
136.200	 -5.980	 -5.805
136.204	 -5.980	 -5.805
136.208	 -5.970	 -5.805
136.212	 -5.960	 -5.805
136.216	 -5.955	 -5.810
136.220	 -5.940	 -5.810
136.224	 -5.920	 -5.810
136.228	 -5.905	 -5.810
136.232	 -5.880	 -5.815
136.236	 -5.850	 -5.810
136.240	 -5.810	 -5.805
136.244	 -5.770	 -5.800
136.248	 -5.740	 -5.795
136.252	 -5.705	 -5.795
136.256	 -5.675	 -5.785
136.260	 -5.640	 -5.780
136.264	 -5.620	 -5.770
136.268	 -5.595	 -5.755
136.272	 -5.570	 -5.750
136.276	 -5.555	 -5.740
136.280	 -5.540	 -5.735
136.284	 -5.520	 -5.720
136.288	 -5.510	 -5.720
136.292	 -5.500	 -5.705
136.296	 -5.500	 -5.695
136.300	 -5.495	 -5.690
136.304	 -5.500	 -5.685
136.308	 -5.505	 -5.675
136.312	 -5.520	 -5.665
136.316	 -5.525	 -5.665
136.320	 -5.540	 -5.655
136.324	 -5.560	 -5.645
136.328	 -5.580	 -5.645
136.332	 -5.600	 -5.640
136.336	 -5.620	 -5.630
136.340	 -5.640	 -5.635
136.344	 -5.665	 -5.635
136.348	 -5.680	 -5.640
136.352	 -5.700	 -5.640
136.356	 -5.720	 -5.645
136.360	 -5.730	 -5.650
136.364	 -5.745	 -5.650
136.368	 -5.760	 -5.655
136.372	 -5.775	 -5.660
136.376	 -5.785	 -5.670
136.380	 -5.800	 -5.680
136.384	 -5.805	 -5.685
136.388	 -5.815	 -5.685
136.392	 -5.820	 -5.695
136.396	 -5.825	 -5.700
136.400	 -5.830	 -5.705
136.404	 -5.830	 -5.705
136.408	 -5.840	 -5.710
136.412	 -5.840	 -5.705
136.416	 -5.845	 -5.705
136.420	 -5.850	 -5.710
136.424	 -5.850	 -5.705
136.428	 -5.845	 -5.700
136.432	 -5.850	 -5.695
136.436	 -5.840	 -5.695
136.440	 -5.840	 -5.695
136.444	 -5.835	 -5.685
136.448	 -5.820	 -5.680
136.452	 -5.815	 -5.670
136.456	 -5.810	 -5.665
136.460	 -5.800	 -5.665
136.464	 -5.800	 -5.660
136.468	 -5.795	 -5.660
136.472	 -5.785	 -5.650
136.476	 -5.780	 -5.645
136.480	 -5.780	 -5.645
136.484	 -5.770	 -5.645
136.488	 -5.760	 -5.640
136.492	 -5.750	 -5.640
136.496	 -5.735	 -5.640
136.500	 -5.725	 -5.630
136.504	 -5.720	 -5.625
136.508	 -5.720	 -5.610
136.512	 -5.720	 -5.610
136.516	 -5.715	 -5.610
136.520	 -5.705	 -5.610
136.524	 -5.690	 -5.615
136.528	 -5.680	 -5.610
136.532	 -5.660	 -5.600
136.536	 -5.670	 -5.590
136.540	 -5.680	 -5.570
136.544	 -5.690	 -5.565
136.548	 -5.690	 -5.570
136.552	 -5.690	 -5.580
136.556	 -5.700	 -5.585
136.560	 -5.715	 -5.585
136.564	 -5.730	 -5.595
136.568	 -5.745	 -5.605
136.572	 -5.760	 -5.620
136.576	 -5.775	 -5.635
136.580	 -5.795	 -5.645
136.584	 -5.815	 -5.660
136.588	 -5.835	 -5.660
136.592	 -5.840	 -5.665
136.596	 -5.840	 -5.685
136.600	 -5.840	 -5.705
136.604	 -5.840	 -5.715
136.608	 -5.845	 -5.715
136.612	 -5.850	 -5.720
136.616	 -5.850	 -5.720
136.620	 -5.855	 -5.730
136.624	 -5.855	 -5.735
136.628	 -5.855	 -5.735
136.632	 -5.860	 -5.740
136.636	 -5.865	 -5.740
136.640	 -5.880	 -5.745
136.644	 -5.895	 -5.750
136.648	 -5.885	 -5.755
136.652	 -5.800	 -5.755
136.656	 -5.655	 -5.775
136.660	 -5.515	 -5.765
136.664	 -5.305	 -5.720
136.668	 -4.965	 -5.690
136.672	 -4.560	 -5.685
136.676	 -4.230	 -5.665
136.680	 -4.060	 -5.595
136.684	 -4.020	 -5.495
136.688	 -4.120	 -5.380
136.692	 -4.360	 -5.345
136.696	 -4.710	 -5.400
136.700	 -5.150	 -5.500
136.704	 -5.605	 -5.585
136.708	 -5.980	 -5.650
136.712	 -6.200	 -5.770
136.716	 -6.240	 -5.940
136.720	 -6.225	 -6.070
136.724	 -6.225	 -6.130
136.728	 -6.215	 -6.150
136.732	 -6.170	 -6.140
136.736	 -6.110	 -6.125
136.740	 -6.050	 -6.085
136.744	 -6.025	 -6.015
136.748	 -6.020	 -5.935
136.752	 -6.020	 -5.890
136.756	 -6.010	 -5.865
136.760	 -6.005	 -5.860
136.764	 -6.000	 -5.845
136.768	 -6.000	 -5.840
136.772	 -5.990	 -5.830
136.776	 -5.980	 -5.825
136.780	 -5.980	 -5.825
136.784	 -5.975	 -5.820
136.788	 -5.970	 -5.815
136.792	 -5.970	 -5.815
136.796	 -5.965	 -5.820
136.800	 -5.960	 -5.820
136.804	 -5.950	 -5.815
136.808	 -5.940	 -5.815
136.812	 -5.925	 -5.815
136.816	 -5.915	 -5.820
136.820	 -5.900	 -5.820
136.824	 -5.880	 -5.825
136.828	 -5.855	 -5.815
136.832	 -5.835	 -5.815
136.836	 -5.805	 -5.815
136.840	 -5.780	 -5.815
136.844	 -5.740	 -5.805
136.848	 -5.710	 -5.800
136.852	 -5.680	 -5.790
136.856	 -5.640	 -5.785
136.860	 -5.600	 -5.775
136.864	 -5.565	 -5.770
136.868	 -5.540	 -5.755
136.872	 -5.515	 -5.755
136.876	 -5.500	 -5.745
136.880	 -5.480	 -5.735
136.884	 -5.475	 -5.720
136.888	 -5.465	 -5.715
136.892	 -5.460	 -5.705
136.896	 -5.455	 -5.700
136.900	 -5.460	 -5.690
136.904	 -5.470	 -5.685
136.908	 -5.480	 -5.665
136.912	 -5.500	 -5.665
136.916	 -5.510	 -5.660
136.920	 -5.525	 -5.660
136.924	 -5.540	 -5.650
136.928	 -5.560	 -5.645
136.932	 -5.580	 -5.645
136.936	 -5.605	 -5.650
136.940	 -5.620	 -5.650
136.944	 -5.650	 -5.650
136.948	 -5.675	 -5.655
136.952	 -5.700	 -5.660
136.956	 -5.720	 -5.660
136.960	 -5.735	 -5.665
136.964	 -5.750	 -5.680
136.968	 -5.760	 -5.680
136.972	 -5.765	 -5.685
136.976	 -5.775	 -5.690
136.980	 -5.785	 -5.695
136.984	 -5.795	 -5.700
136.988	 -5.800	 -5.705
136.992	 -5.805	 -5.710
136.996	 -5.815	 -5.715
137.000	 -5.820	 -5.720
137.004	 -5.825	 -5.720
137.008	 -5.830	 -5.720
137.012	 -5.835	 -5.720
137.016	 -5.835	 -5.720
137.020	 -5.840	 -5.720
137.024	 -5.835	 -5.715
137.028	 -5.830	 -5.715
137.032	 -5.835	 -5.715
137.036	 -5.835	 -5.710
137.040	 -5.830	 -5.705
137.044	 -5.830	 -5.700
137.048	 -5.820	 -5.695
137.052	 -5.820	 -5.685
137.056	 -5.810	 -5.685
137.060	 -5.805	 -5.680
137.064	 -5.800	 -5.675
137.068	 -5.785	 -5.665
137.072	 -5.775	 -5.660
137.076	 -5.775	 -5.660
137.080	 -5.770	 -5.665
137.084	 -5.770	 -5.660
137.088	 -5.760	 -5.655
137.092	 -5.740	 -5.655
137.096	 -5.725	 -5.650
137.100	 -5.725	 -5.645
137.104	 -5.720	 -5.630
137.108	 -5.720	 -5.625
137.112	 -5.720	 -5.620
137.116	 -5.720	 -5.625
137.120	 -5.705	 -5.625
137.124	 -5.685	 -5.625
137.128	 -5.660	 -5.615
137.132	 -5.655	 -5.605
137.136	 -5.665	 -5.595
137.140	 -5.670	 -5.580
137.144	 -5.670	 -5.580
137.148	 -5.670	 -5.585
137.152	 -5.685	 -5.590
137.156	 -5.700	 -5.595
137.160	 -5.720	 -5.610
137.164	 -5.740	 -5.620
137.168	 -5.760	 -5.630
137.172	 -5.775	 -5.650
137.176	 -5.800	 -5.660
137.180	 -5.810	 -5.665
137.184	 -5.830	 -5.670
137.188	 -5.845	 -5.675
137.192	 -5.840	 -5.685
137.196	 -5.840	 -5.700
137.200	 -5.845	 -5.720
137.204	 -5.850	 -5.720
137.208	 -5.850	 -5.730
137.212	 -5.855	 -5.730
137.216	 -5.860	 -5.735
137.220	 -5.855	 -5.740
137.224	 -5.855	 -5.735
137.228	 -5.855	 -5.740
137.232	 -5.855	 -5.740
137.236	 -5.860	 -5.745
137.240	 -5.875	 -5.750
137.244	 -5.900	 -5.755
137.248	 -5.880	 -5.760
137.252	 -5.780	 -5.770
137.256	 -5.640	 -5.780
137.260	 -5.485	 -5.745
137.264	 -5.220	 -5.690
137.268	 -4.835	 -5.675
137.272	 -4.440	 -5.675
137.276	 -4.160	 -5.640
137.280	 -4.035	 -5.560
137.284	 -4.025	 -5.460
137.288	 -4.175	 -5.350
137.292	 -4.435	 -5.350
137.296	 -4.810	 -5.410
137.300	 -5.255	 -5.515
137.304	 -5.695	 -5.590
137.308	 -6.045	 -5.660
137.312	 -6.235	 -5.800
137.316	 -6.250	 -5.960
137.320	 -6.240	 -6.075
137.324	 -6.235	 -6.140
137.328	 -6.225	 -6.155
137.332	 -6.185	 -6.150
137.336	 -6.130	 -6.140
137.340	 -6.070	 -6.110
137.344	 -6.030	 -6.040
137.348	 -6.020	 -5.960
137.352	 -6.015	 -5.900
137.356	 -6.005	 -5.870
137.360	 -6.005	 -5.855
137.364	 -6.005	 -5.845
137.368	 -6.010	 -5.845
137.372	 -6.005	 -5.840
137.376	 -6.000	 -5.835
137.380	 -5.995	 -5.835
137.384	 -5.995	 -5.825
137.388	 -5.990	 -5.825
137.392	 -5.980	 -5.820
137.396	 -5.980	 -5.815
137.400	 -5.980	 -5.815
137.404	 -5.970	 -5.815
137.408	 -5.960	 -5.815
137.412	 -5.945	 -5.815
137.416	 -5.930	 -5.815
137.420	 -5.910	 -5.815
137.424	 -5.895	 -5.815
137.428	 -5.870	 -5.815
137.432	 -5.840	 -5.815
137.436	 -5.815	 -5.815
137.440	 -5.785	 -5.810
137.444	 -5.760	 -5.805
137.448	 -5.725	 -5.800
137.452	 -5.700	 -5.795
137.456	 -5.675	 -5.790
137.460	 -5.640	 -5.785
137.464	 -5.615	 -5.775
137.468	 -5.585	 -5.755
137.472	 -5.560	 -5.755
137.476	 -5.530	 -5.745
137.480	 -5.510	 -5.740
137.484	 -5.500	 -5.730
137.488	 -5.500	 -5.725
137.492	 -5.500	 -5.720
137.496	 -5.500	 -5.710
137.500	 -5.490	 -5.700
137.504	 -5.495	 -5.690
137.508	 -5.500	 -5.680
137.512	 -5.505	 -5.665
137.516	 -5.515	 -5.665
137.520	 -5.535	 -5.660
137.524	 -5.560	 -5.650
137.528	 -5.575	 -5.650
137.532	 -5.595	 -5.645
137.536	 -5.615	 -5.645
137.540	 -5.635	 -5.645
137.544	 -5.655	 -5.650
137.548	 -5.680	 -5.645
137.552	 -5.700	 -5.650
137.556	 -5.720	 -5.660
137.560	 -5.730	 -5.665
137.564	 -5.755	 -5.665
137.568	 -5.765	 -5.670
137.572	 -5.785	 -5.685
137.576	 -5.800	 -5.695
137.580	 -5.820	 -5.690
137.584	 -5.825	 -5.695
137.588	 -5.830	 -5.695
137.592	 -5.840	 -5.705
137.596	 -5.850	 -5.705
137.600	 -5.860	 -5.710
137.604	 -5.860	 -5.715
137.608	 -5.865	 -5.715
137.612	 -5.860	 -5.715
137.616	 -5.870	 -5.715
137.620	 -5.865	 -5.715
137.624	 -5.870	 -5.715
137.628	 -5.870	 -5.710
137.632	 -5.860	 -5.705
137.636	 -5.860	 -5.700
137.640	 -5.860	 -5.695
137.644	 -5.855	 -5.685
137.648	 -5.850	 -5.685
137.652	 -5.850	 -5.680
137.656	 -5.840	 -5.675
137.660	 -5.840	 -5.670
137.664	 -5.830	 -5.660
137.668	 -5.825	 -5.655
137.672	 -5.820	 -5.645
137.676	 -5.820	 -5.645
137.680	 -5.815	 -5.640
137.684	 -5.800	 -5.635
137.688	 -5.780	 -5.635
137.692	 -5.760	 -5.630
137.696	 -5.755	 -5.630
137.700	 -5.750	 -5.620
137.704	 -5.740	 -5.615
137.708	 -5.740	 -5.610
137.712	 -5.740	 -5.610
137.716	 -5.735	 -5.605
137.720	 -5.720	 -5.615
137.724	 -5.690	 -5.610
137.728	 -5.675	 -5.600
137.732	 -5.665	 -5.585
137.736	 -5.670	 -5.570
137.740	 -5.675	 -5.560
137.744	 -5.680	 -5.560
137.748	 -5.680	 -5.565
137.752	 -5.695	 -5.575
137.756	 -5.710	 -5.580
137.760	 -5.730	 -5.590
137.764	 -5.745	 -5.600
137.768	 -5.760	 -5.615
137.772	 -5.785	 -5.630
137.776	 -5.800	 -5.640
137.780	 -5.830	 -5.650
137.784	 -5.850	 -5.660
137.788	 -5.860	 -5.670
137.792	 -5.865	 -5.685
137.796	 -5.865	 -5.695
137.800	 -5.870	 -5.710
137.804	 -5.880	 -5.715
137.808	 -5.875	 -5.720
137.812	 -5.875	 -5.720
137.816	 -5.870	 -5.730
137.820	 -5.870	 -5.735
137.824	 -5.865	 -5.735
137.828	 -5.865	 -5.740
137.832	 -5.860	 -5.740
137.836	 -5.870	 -5.740
137.840	 -5.890	 -5.740
137.844	 -5.890	 -5.740
137.848	 -5.830	 -5.750
137.852	 -5.700	 -5.770
137.856	 -5.560	 -5.755
137.860	 -5.355	 -5.710
137.864	 -5.020	 -5.685
137.868	 -4.610	 -5.675
137.872	 -4.275	 -5.660
137.876	 -4.095	 -5.595
137.880	 -4.035	 -5.505
137.884	 -4.110	 -5.385
137.888	 -4.340	 -5.325
137.892	 -4.695	 -5.355
137.896	 -5.150	 -5.455
137.900	 -5.600	 -5.540
137.904	 -5.980	 -5.615
137.908	 -6.215	 -5.750
137.912	 -6.250	 -5.900
137.916	 -6.235	 -6.025
137.920	 -6.230	 -6.105
137.924	 -6.235	 -6.130
137.928	 -6.200	 -6.125
137.932	 -6.150	 -6.110
137.936	 -6.090	 -6.095
137.940	 -6.035	 -6.045
137.944	 -6.020	 -5.970
137.948	 -6.015	 -5.905
137.952	 -6.005	 -5.870
137.956	 -6.000	 -5.855
137.960	 -6.000	 -5.845
137.964	 -5.995	 -5.835
137.968	 -5.990	 -5.830
137.972	 -5.990	 -5.825
137.976	 -5.990	 -5.825
137.980	 -5.995	 -5.815
137.984	 -5.990	 -5.815
137.988	 -5.985	 -5.815
137.992	 -5.975	 -5.815
137.996	 -5.970	 -5.810
138.000	 -5.960	 -5.810
138.004	 -5.950	 -5.815
138.008	 -5.935	 -5.815
138.012	 -5.920	 -5.810
138.016	 -5.910	 -5.810
138.020	 -5.890	 -5.810
138.024	 -5.870	 -5.810
138.028	 -5.845	 -5.805
138.032	 -5.830	 -5.810
138.036	 -5.800	 -5.810
138.040	 -5.770	 -5.805
138.044	 -5.740	 -5.800
138.048	 -5.705	 -5.790
138.052	 -5.670	 -5.785
138.056	 -5.640	 -5.780
138.060	 -5.610	 -5.770
138.064	 -5.585	 -5.755
138.068	 -5.560	 -5.750
138.072	 -5.540	 -5.740
138.076	 -5.520	 -5.730
138.080	 -5.515	 -5.720
138.084	 -5.505	 -5.710
138.088	 -5.490	 -5.695
138.092	 -5.485	 -5.685
138.096	 -5.480	 -5.680
138.100	 -5.490	 -5.675
138.104	 -5.500	 -5.665
138.108	 -5.510	 -5.660
138.112	 -5.525	 -5.650
138.116	 -5.540	 -5.645
138.120	 -5.560	 -5.645
138.124	 -5.575	 -5.640
138.128	 -5.600	 -5.640
138.132	 -5.625	 -5.640
138.136	 -5.640	 -5.645
138.140	 -5.655	 -5.650
138.144	 -5.675	 -5.645
138.148	 -5.695	 -5.650
138.152	 -5.720	 -5.650
138.156	 -5.725	 -5.655
138.160	 -5.745	 -5.660
138.164	 -5.755	 -5.665
138.168	 -5.770	 -5.670
138.172	 -5.785	 -5.665
138.176	 -5.795	 -5.680
138.180	 -5.810	 -5.680
138.184	 -5.820	 -5.685
138.188	 -5.830	 -5.685
138.192	 -5.840	 -5.685
138.196	 -5.840	 -5.690
138.200	 -5.845	 -5.695
138.204	 -5.845	 -5.690
138.208	 -5.845	 -5.695
138.212	 -5.845	 -5.690
138.216	 -5.840	 -5.685
138.220	 -5.840	 -5.685
138.224	 -5.840	 -5.680
138.228	 -5.840	 -5.680
138.232	 -5.835	 -5.675
138.236	 -5.830	 -5.665
138.240	 -5.830	 -5.665
138.244	 -5.825	 -5.660
138.248	 -5.820	 -5.660
138.252	 -5.820	 -5.655
138.256	 -5.820	 -5.655
138.260	 -5.815	 -5.645
138.264	 -5.810	 -5.640
138.268	 -5.800	 -5.640
138.272	 -5.800	 -5.630
138.276	 -5.795	 -5.630
138.280	 -5.795	 -5.630
138.284	 -5.780	 -5.625
138.288	 -5.770	 -5.620
138.292	 -5.760	 -5.625
138.296	 -5.740	 -5.615
138.300	 -5.730	 -5.610
138.304	 -5.725	 -5.595
138.308	 -5.730	 -5.600
138.312	 -5.725	 -5.595
138.316	 -5.720	 -5.600
138.320	 -5.700	 -5.600
138.324	 -5.690	 -5.600
138.328	 -5.670	 -5.595
138.332	 -5.665	 -5.580
138.336	 -5.675	 -5.560
138.340	 -5.680	 -5.550
138.344	 -5.680	 -5.560
138.348	 -5.685	 -5.565
138.352	 -5.695	 -5.575
138.356	 -5.705	 -5.575
138.360	 -5.725	 -5.590
138.364	 -5.735	 -5.595
138.368	 -5.755	 -5.605
138.372	 -5.775	 -5.630
138.376	 -5.800	 -5.640
138.380	 -5.820	 -5.645
138.384	 -5.850	 -5.650
138.388	 -5.870	 -5.660
138.392	 -5.870	 -5.675
138.396	 -5.880	 -5.690
138.400	 -5.885	 -5.705
138.404	 -5.890	 -5.705
138.408	 -5.885	 -5.715
138.412	 -5.885	 -5.720
138.416	 -5.885	 -5.720
138.420	 -5.880	 -5.720
138.424	 -5.870	 -5.720
138.428	 -5.870	 -5.720
138.432	 -5.875	 -5.725
138.436	 -5.880	 -5.730
138.440	 -5.910	 -5.735
138.444	 -5.905	 -5.740
138.448	 -5.835	 -5.745
138.452	 -5.700	 -5.765
138.456	 -5.560	 -5.750
138.460	 -5.350	 -5.695
138.464	 -5.005	 -5.665
138.468	 -4.610	 -5.665
138.472	 -4.275	 -5.645
138.476	 -4.100	 -5.575
138.480	 -4.060	 -5.480
138.484	 -4.140	 -5.370
138.488	 -4.360	 -5.325
138.492	 -4.695	 -5.380
138.496	 -5.125	 -5.470
138.500	 -5.600	 -5.560
138.504	 -6.000	 -5.620
138.508	 -6.240	 -5.735
138.512	 -6.290	 -5.910
138.516	 -6.275	 -6.045
138.520	 -6.270	 -6.120
138.524	 -6.260	 -6.140
138.528	 -6.215	 -6.135
138.532	 -6.155	 -6.115
138.536	 -6.085	 -6.095
138.540	 -6.045	 -6.025
138.544	 -6.030	 -5.945
138.548	 -6.025	 -5.890
138.552	 -6.025	 -5.865
138.556	 -6.010	 -5.845
138.560	 -6.010	 -5.840
138.564	 -6.010	 -5.830
138.568	 -6.010	 -5.820
138.572	 -6.005	 -5.820
138.576	 -6.000	 -5.815
138.580	 -6.000	 -5.810
138.584	 -5.995	 -5.810
138.588	 -5.990	 -5.810
138.592	 -5.985	 -5.810
138.596	 -5.980	 -5.810
138.600	 -5.975	 -5.810
138.604	 -5.970	 -5.810
138.608	 -5.960	 -5.805
138.612	 -5.945	 -5.805
138.616	 -5.920	 -5.810
138.620	 -5.900	 -5.805
138.624	 -5.880	 -5.805
138.628	 -5.860	 -5.805
138.632	 -5.835	 -5.810
138.636	 -5.800	 -5.805
138.640	 -5.765	 -5.795
138.644	 -5.735	 -5.785
138.648	 -5.695	 -5.780
138.652	 -5.670	 -5.775
138.656	 -5.635	 -5.770
138.660	 -5.610	 -5.755
138.664	 -5.580	 -5.745
138.668	 -5.560	 -5.740
138.672	 -5.540	 -5.735
138.676	 -5.530	 -5.720
138.680	 -5.520	 -5.710
138.684	 -5.510	 -5.695
138.688	 -5.505	 -5.685
138.692	 -5.500	 -5.680
138.696	 -5.500	 -5.665
138.700	 -5.500	 -5.660
138.704	 -5.515	 -5.650
138.708	 -5.520	 -5.645
138.712	 -5.535	 -5.640
138.716	 -5.555	 -5.640
138.720	 -5.570	 -5.630
138.724	 -5.585	 -5.630
138.728	 -5.610	 -5.640
138.732	 -5.635	 -5.645
138.736	 -5.660	 -5.645
138.740	 -5.680	 -5.645
138.744	 -5.695	 -5.645
138.748	 -5.720	 -5.655
138.752	 -5.740	 -5.660
138.756	 -5.755	 -5.660
138.760	 -5.770	 -5.665
138.764	 -5.785	 -5.675
138.768	 -5.795	 -5.685
138.772	 -5.805	 -5.690
138.776	 -5.820	 -5.695
138.780	 -5.830	 -5.700
138.784	 -5.835	 -5.705
138.788	 -5.840	 -5.710
138.792	 -5.840	 -5.715
138.796	 -5.840	 -5.720
138.800	 -5.850	 -5.720
138.804	 -5.860	 -5.720
138.808	 -5.860	 -5.720
138.812	 -5.865	 -5.720
138.816	 -5.870	 -5.720
138.820	 -5.865	 -5.725
138.824	 -5.860	 -5.715
138.828	 -5.865	 -5.715
138.832	 -5.860	 -5.710
138.836	 -5.865	 -5.700
138.840	 -5.870	 -5.695
138.844	 -5.865	 -5.695
138.848	 -5.860	 -5.690
138.852	 -5.850	 -5.685
138.856	 -5.850	 -5.685
138.860	 -5.840	 -5.665
138.864	 -5.830	 -5.660
138.868	 -5.830	 -5.660
138.872	 -5.825	 -5.660
138.876	 -5.815	 -5.650
138.880	 -5.805	 -5.645
138.884	 -5.790	 -5.645
138.888	 -5.780	 -5.640
138.892	 -5.770	 -5.640
138.896	 -5.765	 -5.625
138.900	 -5.760	 -5.610
138.904	 -5.770	 -5.610
138.908	 -5.770	 -5.610
138.912	 -5.755	 -5.605
138.916	 -5.725	 -5.615
138.920	 -5.695	 -5.605
138.924	 -5.670	 -5.600
138.928	 -5.675	 -5.585
138.932	 -5.680	 -5.570
138.936	 -5.680	 -5.570
138.940	 -5.675	 -5.570
138.944	 -5.680	 -5.580
138.948	 -5.690	 -5.580
138.952	 -5.700	 -5.595
138.956	 -5.725	 -5.605
138.960	 -5.745	 -5.620
138.964	 -5.770	 -5.630
138.968	 -5.795	 -5.645
138.972	 -5.805	 -5.655
138.976	 -5.820	 -5.665
138.980	 -5.840	 -5.675
138.984	 -5.850	 -5.685
138.988	 -5.850	 -5.695
138.992	 -5.855	 -5.715
138.996	 -5.860	 -5.725
139.000	 -5.875	 -5.730
139.004	 -5.875	 -5.735
139.008	 -5.880	 -5.735
139.012	 -5.885	 -5.740
139.016	 -5.880	 -5.750
139.020	 -5.875	 -5.745
139.024	 -5.870	 -5.745
139.028	 -5.870	 -5.750
139.032	 -5.875	 -5.755
139.036	 -5.900	 -5.755
139.040	 -5.900	 -5.765
139.044	 -5.840	 -5.770
139.048	 -5.700	 -5.790
139.052	 -5.560	 -5.770
139.056	 -5.360	 -5.720
139.060	 -5.025	 -5.695
139.064	 -4.625	 -5.685
139.068	 -4.285	 -5.675
139.072	 -4.095	 -5.605
139.076	 -4.035	 -5.515
139.080	 -4.100	 -5.400
139.084	 -4.330	 -5.335
139.088	 -4.680	 -5.360
139.092	 -5.125	 -5.450
139.096	 -5.590	 -5.545
139.100	 -5.990	 -5.615
139.104	 -6.225	 -5.740
139.108	 -6.270	 -5.895
139.112	 -6.255	 -6.025
139.116	 -6.255	 -6.105
139.120	 -6.260	 -6.130
139.124	 -6.220	 -6.125
139.128	 -6.160	 -6.110
139.132	 -6.100	 -6.095
139.136	 -6.050	 -6.040
139.140	 -6.040	 -5.970
139.144	 -6.045	 -5.915
139.148	 -6.040	 -5.875
139.152	 -6.040	 -5.860
139.156	 -6.040	 -5.855
139.160	 -6.035	 -5.845
139.164	 -6.020	 -5.840
139.168	 -6.010	 -5.835
139.172	 -6.000	 -5.835
139.176	 -5.995	 -5.830
139.180	 -5.980	 -5.830
139.184	 -5.970	 -5.825
139.188	 -5.965	 -5.830
139.192	 -5.955	 -5.830
139.196	 -5.950	 -5.825
