200.000	  4.770	  2.100
200.004	  4.820	  2.135
200.008	  4.805	  2.190
200.012	  4.750	  2.285
200.016	  4.710	  2.440
200.020	  4.695	  2.620
200.024	  4.685	  2.805
200.028	  4.675	  3.045
200.032	  4.680	  3.365
200.036	  4.685	  3.695
200.040	  4.675	  3.970
200.044	  4.670	  4.240
200.048	  4.670	  4.530
200.052	  4.680	  4.800
200.056	  4.665	  5.025
200.060	  4.645	  5.215
200.064	  4.635	  5.400
200.068	  4.635	  5.575
200.072	  4.655	  5.715
200.076	  4.660	  5.795
200.080	  4.650	  5.865
200.084	  4.660	  5.925
200.088	  4.675	  5.980
200.092	  4.675	  6.020
200.096	  4.655	  6.060
200.100	  4.660	  6.080
200.104	  4.680	  6.145
200.108	  4.675	  6.180
200.112	  4.655	  6.220
200.116	  4.650	  6.275
200.120	  4.675	  6.320
200.124	  4.665	  6.355
200.128	  4.645	  6.380
200.132	  4.640	  6.450
200.136	  4.655	  6.490
200.140	  4.645	  6.530
200.144	  4.625	  6.575
200.148	  4.625	  6.645
200.152	  4.635	  6.700
200.156	  4.650	  6.735
200.160	  4.625	  6.780
200.164	  4.635	  6.835
200.168	  4.650	  6.885
200.172	  4.660	  6.920
200.176	  4.650	  6.945
200.180	  4.650	  6.985
200.184	  4.660	  7.010
200.188	  4.680	  7.035
200.192	  4.675	  7.050
200.196	  4.695	  7.065
200.200	  4.705	  7.070
200.204	  4.730	  7.085
200.208	  4.730	  7.065
200.212	  4.730	  7.045
200.216	  4.750	  7.030
200.220	  4.770	  6.995
200.224	  4.785	  6.940
200.228	  4.785	  6.885
200.232	  4.805	  6.835
200.236	  4.815	  6.775
200.240	  4.835	  6.690
200.244	  4.835	  6.600
200.248	  4.840	  6.535
200.252	  4.870	  6.455
200.256	  4.880	  6.360
200.260	  4.880	  6.270
200.264	  4.885	  6.195
200.268	  4.890	  6.115
200.272	  4.895	  6.030
200.276	  4.885	  5.945
200.280	  4.885	  5.880
200.284	  4.885	  5.815
200.288	  4.890	  5.750
200.292	  4.890	  5.680
200.296	  4.870	  5.625
200.300	  4.870	  5.610
200.304	  4.880	  5.540
200.308	  4.875	  5.490
200.312	  4.860	  5.450
200.316	  4.860	  5.425
200.320	  4.870	  5.385
200.324	  4.860	  5.340
200.328	  4.845	  5.310
200.332	  4.850	  5.300
200.336	  4.860	  5.290
200.340	  4.850	  5.265
200.344	  4.830	  5.235
200.348	  4.845	  5.230
200.352	  4.845	  5.225
200.356	  4.845	  5.205
200.360	  4.830	  5.195
200.364	  4.830	  5.180
200.368	  4.840	  5.190
200.372	  4.845	  5.175
200.376	  4.830	  5.155
200.380	  4.830	  5.145
200.384	  4.840	  5.170
200.388	  4.855	  5.165
200.392	  4.840	  5.150
200.396	  4.830	  5.150
200.400	  4.835	  5.150
200.404	  4.855	  5.145
200.408	  4.845	  5.145
200.412	  4.835	  5.140
200.416	  4.840	  5.150
200.420	  4.850	  5.145
200.424	  4.855	  5.145
200.428	  4.835	  5.130
200.432	  4.835	  5.150
200.436	  4.850	  5.155
200.440	  4.850	  5.150
200.444	  4.840	  5.140
200.448	  4.840	  5.160
200.452	  4.860	  5.155
200.456	  4.850	  5.155
200.460	  4.845	  5.140
200.464	  4.820	  5.140
200.468	  4.835	  5.150
200.472	  4.845	  5.150
200.476	  4.830	  5.140
200.480	  4.815	  5.130
200.484	  4.815	  5.140
200.488	  4.825	  5.145
200.492	  4.815	  5.115
200.496	  4.805	  5.120
200.500	  4.795	  5.125
200.504	  4.825	  5.120
200.508	  4.820	  5.095
200.512	  4.795	  5.095
200.516	  4.810	  5.095
200.520	  4.820	  5.105
200.524	  4.820	  5.085
200.528	  4.800	  5.080
200.532	  4.810	  5.085
200.536	  4.815	  5.085
200.540	  4.815	  5.065
200.544	  4.810	  5.050
200.548	  4.795	  5.065
200.552	  4.805	  5.070
200.556	  4.795	  5.055
200.560	  4.800	  5.030
200.564	  4.790	  5.035
200.568	  4.795	  5.040
200.572	  4.790	  5.030
200.576	  4.795	  5.010
200.580	  4.795	  5.015
200.584	  4.800	  5.020
200.588	  4.805	  5.015
200.592	  4.805	  5.015
200.596	  4.790	  5.000
200.600	  4.795	  5.005
200.604	  4.805	  5.020
200.608	  4.795	  5.010
200.612	  4.795	  4.980
200.616	  4.790	  5.005
200.620	  4.810	  5.000
200.624	  4.800	  5.000
200.628	  4.795	  4.990
200.632	  4.800	  5.000
200.636	  4.805	  5.010
200.640	  4.805	  5.020
200.644	  4.795	  5.010
200.648	  4.790	  5.030
200.652	  4.790	  5.035
200.656	  4.790	  5.025
200.660	  4.780	  5.020
200.664	  4.780	  5.040
200.668	  4.785	  5.040
200.672	  4.785	  5.040
200.676	  4.785	  5.025
200.680	  4.800	  5.020
200.684	  4.820	  5.015
200.688	  4.825	  4.990
200.692	  4.830	  4.985
200.696	  4.825	  4.960
200.700	  4.835	  4.965
200.704	  4.855	  4.965
200.708	  4.865	  4.940
200.712	  4.850	  4.935
200.716	  4.850	  4.935
200.720	  4.860	  4.930
200.724	  4.860	  4.930
200.728	  4.845	  4.930
200.732	  4.865	  5.020
200.736	  4.880	  5.275
200.740	  4.910	  5.805
200.744	  4.950	  5.940
200.748	  5.140	  5.585
200.752	  5.615	  5.390
200.756	  5.800	  5.320
200.760	  5.430	  5.250
200.764	  5.170	  5.210
200.768	  5.190	  5.135
200.772	  5.245	  4.975
200.776	  5.260	  4.715
200.780	  5.250	  4.390
200.784	  5.285	  4.055
200.788	  5.305	  3.690
200.792	  5.300	  3.325
200.796	  5.295	  3.055
200.800	  5.295	  2.990
200.804	  5.365	  2.740
200.808	  5.375	  2.615
200.812	  5.370	  2.470
200.816	  5.375	  2.350
200.820	  5.355	  2.260
200.824	  5.280	  2.205
200.828	  5.210	  2.150
200.832	  5.150	  2.105
200.836	  5.055	  2.080
200.840	  4.940	  2.060
200.844	  4.875	  2.050
200.848	  4.885	  2.060
200.852	  4.915	  2.075
200.856	  4.915	  2.085
200.860	  4.860	  2.130
200.864	  4.795	  2.225
200.868	  4.750	  2.370
200.872	  4.720	  2.530
200.876	  4.690	  2.715
200.880	  4.680	  2.975
200.884	  4.690	  3.315
200.888	  4.690	  3.650
200.892	  4.685	  3.960
200.896	  4.655	  4.275
200.900	  4.650	  4.370
200.904	  4.665	  4.825
200.908	  4.640	  5.040
200.912	  4.620	  5.245
200.916	  4.620	  5.435
200.920	  4.630	  5.590
200.924	  4.640	  5.700
200.928	  4.610	  5.765
200.932	  4.620	  5.835
200.936	  4.635	  5.900
200.940	  4.655	  5.940
200.944	  4.635	  5.975
200.948	  4.645	  6.040
200.952	  4.655	  6.085
200.956	  4.670	  6.125
200.960	  4.655	  6.160
200.964	  4.655	  6.220
200.968	  4.665	  6.260
200.972	  4.670	  6.310
200.976	  4.670	  6.335
200.980	  4.665	  6.385
200.984	  4.675	  6.450
200.988	  4.685	  6.495
200.992	  4.675	  6.510
200.996	  4.660	  6.560
201.000	  4.660	  6.580
201.004	  4.685	  6.680
201.008	  4.690	  6.715
201.012	  4.675	  6.750
201.016	  4.700	  6.815
201.020	  4.700	  6.855
201.024	  4.700	  6.890
201.028	  4.690	  6.915
201.032	  4.715	  6.960
201.036	  4.740	  6.990
201.040	  4.740	  7.010
201.044	  4.735	  7.015
201.048	  4.760	  7.035
201.052	  4.775	  7.045
201.056	  4.775	  7.050
201.060	  4.775	  7.015
201.064	  4.790	  6.990
201.068	  4.815	  6.970
201.072	  4.815	  6.920
201.076	  4.805	  6.860
201.080	  4.820	  6.800
201.084	  4.845	  6.750
201.088	  4.865	  6.670
201.092	  4.875	  6.575
201.096	  4.860	  6.500
201.100	  4.865	  6.475
201.104	  4.900	  6.335
201.108	  4.880	  6.250
201.112	  4.875	  6.155
201.116	  4.875	  6.090
201.120	  4.895	  6.010
201.124	  4.885	  5.930
201.128	  4.870	  5.840
201.132	  4.885	  5.785
201.136	  4.895	  5.725
201.140	  4.895	  5.655
201.144	  4.875	  5.585
201.148	  4.865	  5.535
201.152	  4.860	  5.500
201.156	  4.860	  5.440
201.160	  4.845	  5.380
201.164	  4.830	  5.365
201.168	  4.840	  5.330
201.172	  4.850	  5.300
201.176	  4.835	  5.250
201.180	  4.820	  5.240
201.184	  4.815	  5.230
201.188	  4.815	  5.215
201.192	  4.805	  5.185
201.196	  4.805	  5.175
201.200	  4.810	  5.170
201.204	  4.835	  5.155
201.208	  4.835	  5.140
201.212	  4.815	  5.125
201.216	  4.825	  5.120
201.220	  4.845	  5.120
201.224	  4.835	  5.115
201.228	  4.820	  5.095
201.232	  4.825	  5.110
201.236	  4.830	  5.110
201.240	  4.820	  5.090
201.244	  4.800	  5.085
201.248	  4.790	  5.090
201.252	  4.800	  5.095
201.256	  4.815	  5.085
201.260	  4.800	  5.080
201.264	  4.815	  5.095
201.268	  4.815	  5.095
201.272	  4.820	  5.100
201.276	  4.805	  5.080
201.280	  4.795	  5.090
201.284	  4.810	  5.110
201.288	  4.815	  5.100
201.292	  4.810	  5.090
201.296	  4.790	  5.090
201.300	  4.785	  5.100
201.304	  4.805	  5.100
201.308	  4.815	  5.080
201.312	  4.810	  5.090
201.316	  4.820	  5.110
201.320	  4.820	  5.095
201.324	  4.825	  5.085
201.328	  4.805	  5.080
201.332	  4.800	  5.085
201.336	  4.800	  5.095
201.340	  4.785	  5.080
201.344	  4.770	  5.070
201.348	  4.770	  5.075
201.352	  4.790	  5.075
201.356	  4.785	  5.080
201.360	  4.765	  5.050
201.364	  4.770	  5.055
201.368	  4.780	  5.060
201.372	  4.780	  5.050
201.376	  4.770	  5.040
201.380	  4.780	  5.035
201.384	  4.800	  5.040
201.388	  4.795	  5.040
201.392	  4.765	  5.025
201.396	  4.755	  5.010
201.400	  4.760	  5.005
201.404	  4.785	  5.015
201.408	  4.775	  5.000
201.412	  4.765	  4.995
201.416	  4.770	  4.995
201.420	  4.780	  4.990
201.424	  4.770	  4.985
201.428	  4.745	  4.965
201.432	  4.770	  4.980
201.436	  4.775	  4.985
201.440	  4.780	  4.980
201.444	  4.760	  4.965
201.448	  4.750	  4.970
201.452	  4.760	  4.970
201.456	  4.755	  4.960
201.460	  4.745	  4.955
201.464	  4.750	  4.955
201.468	  4.770	  4.970
201.472	  4.785	  4.960
201.476	  4.765	  4.945
201.480	  4.755	  4.940
201.484	  4.765	  4.965
201.488	  4.770	  4.960
201.492	  4.765	  4.945
201.496	  4.760	  4.940
201.500	  4.770	  4.945
201.504	  4.775	  4.940
201.508	  4.760	  4.935
201.512	  4.730	  4.920
201.516	  4.750	  4.930
201.520	  4.770	  4.940
201.524	  4.760	  4.930
201.528	  4.755	  4.925
201.532	  4.755	  4.940
201.536	  4.770	  4.940
201.540	  4.775	  4.935
201.544	  4.765	  4.935
201.548	  4.760	  4.945
201.552	  4.780	  4.955
201.556	  4.785	  4.965
201.560	  4.765	  4.965
201.564	  4.750	  4.980
201.568	  4.755	  4.985
201.572	  4.770	  4.970
201.576	  4.785	  4.965
201.580	  4.815	  4.955
201.584	  4.845	  5.005
201.588	  4.860	  5.180
201.592	  4.885	  5.625
201.596	  4.940	  5.850
201.600	  4.965	  5.815
201.604	  5.545	  5.335
201.608	  5.815	  5.250
201.612	  5.515	  5.165
201.616	  5.220	  5.080
201.620	  5.195	  4.935
201.624	  5.215	  4.730
201.628	  5.210	  4.495
201.632	  5.210	  4.205
201.636	  5.215	  3.890
201.640	  5.215	  3.620
201.644	  5.180	  3.385
201.648	  5.155	  3.175
201.652	  5.170	  2.920
201.656	  5.195	  2.640
201.660	  5.180	  2.455
201.664	  5.150	  2.335
201.668	  5.095	  2.230
201.672	  5.030	  2.135
201.676	  4.930	  2.080
201.680	  4.850	  2.055
201.684	  4.780	  2.055
201.688	  4.705	  2.035
201.692	  4.630	  2.025
201.696	  4.610	  2.035
201.700	  4.625	  2.040
201.704	  4.715	  2.085
201.708	  4.710	  2.140
201.712	  4.695	  2.280
201.716	  4.655	  2.440
201.720	  4.635	  2.650
201.724	  4.620	  2.890
201.728	  4.625	  3.190
201.732	  4.680	  3.505
201.736	  4.740	  3.825
201.740	  4.735	  4.135
201.744	  4.700	  4.415
201.748	  4.675	  4.685
201.752	  4.670	  4.925
201.756	  4.665	  5.145
201.760	  4.655	  5.340
201.764	  4.665	  5.515
201.768	  4.670	  5.630
201.772	  4.680	  5.700
201.776	  4.675	  5.755
201.780	  4.675	  5.815
201.784	  4.695	  5.870
201.788	  4.720	  5.910
201.792	  4.710	  5.940
201.796	  4.695	  5.980
201.800	  4.690	  6.000
201.804	  4.710	  6.055
201.808	  4.720	  6.095
201.812	  4.710	  6.115
201.816	  4.725	  6.165
201.820	  4.720	  6.205
201.824	  4.730	  6.235
201.828	  4.715	  6.265
201.832	  4.750	  6.320
201.836	  4.755	  6.350
201.840	  4.750	  6.385
201.844	  4.730	  6.420
201.848	  4.720	  6.470
201.852	  4.745	  6.525
201.856	  4.755	  6.550
201.860	  4.750	  6.585
201.864	  4.735	  6.625
201.868	  4.755	  6.670
201.872	  4.760	  6.690
201.876	  4.770	  6.710
201.880	  4.770	  6.745
201.884	  4.780	  6.770
201.888	  4.790	  6.790
201.892	  4.785	  6.805
201.896	  4.775	  6.805
201.900	  4.775	  6.810
201.904	  4.825	  6.820
201.908	  4.820	  6.790
201.912	  4.810	  6.775
201.916	  4.830	  6.755
201.920	  4.845	  6.715
201.924	  4.855	  6.660
201.928	  4.850	  6.600
201.932	  4.865	  6.560
201.936	  4.875	  6.500
201.940	  4.875	  6.410
201.944	  4.875	  6.335
201.948	  4.880	  6.260
201.952	  4.890	  6.185
201.956	  4.910	  6.095
201.960	  4.885	  6.000
201.964	  4.890	  5.930
201.968	  4.900	  5.855
201.972	  4.910	  5.770
201.976	  4.895	  5.695
201.980	  4.880	  5.630
201.984	  4.875	  5.580
201.988	  4.895	  5.520
201.992	  4.865	  5.455
201.996	  4.855	  5.415
202.000	  4.855	  5.410
202.004	  4.870	  5.350
202.008	  4.850	  5.300
202.012	  4.835	  5.275
202.016	  4.840	  5.265
202.020	  4.845	  5.240
202.024	  4.850	  5.205
202.028	  4.825	  5.185
202.032	  4.825	  5.185
202.036	  4.835	  5.170
202.040	  4.830	  5.155
202.044	  4.800	  5.140
202.048	  4.810	  5.140
202.052	  4.810	  5.145
202.056	  4.825	  5.140
202.060	  4.810	  5.120
202.064	  4.810	  5.115
202.068	  4.815	  5.130
202.072	  4.815	  5.125
202.076	  4.805	  5.100
202.080	  4.800	  5.100
202.084	  4.800	  5.125
202.088	  4.810	  5.125
202.092	  4.805	  5.120
202.096	  4.805	  5.120
202.100	  4.810	  5.130
202.104	  4.825	  5.135
202.108	  4.815	  5.115
202.112	  4.800	  5.120
202.116	  4.805	  5.130
202.120	  4.820	  5.135
202.124	  4.805	  5.125
202.128	  4.785	  5.105
202.132	  4.795	  5.125
202.136	  4.805	  5.125
202.140	  4.800	  5.120
202.144	  4.780	  5.110
202.148	  4.780	  5.120
202.152	  4.795	  5.130
202.156	  4.780	  5.110
202.160	  4.785	  5.100
202.164	  4.775	  5.105
202.168	  4.785	  5.120
202.172	  4.775	  5.110
202.176	  4.755	  5.085
202.180	  4.750	  5.085
202.184	  4.770	  5.095
202.188	  4.765	  5.085
202.192	  4.755	  5.075
202.196	  4.750	  5.070
202.200	  4.755	  5.075
202.204	  4.755	  5.075
202.208	  4.745	  5.060
202.212	  4.730	  5.050
202.216	  4.740	  5.060
202.220	  4.755	  5.055
202.224	  4.750	  5.050
202.228	  4.735	  5.035
202.232	  4.735	  5.040
202.236	  4.745	  5.045
202.240	  4.735	  5.025
202.244	  4.735	  5.010
202.248	  4.735	  5.020
202.252	  4.745	  5.020
202.256	  4.740	  5.010
202.260	  4.730	  5.000
202.264	  4.725	  5.005
202.268	  4.740	  5.005
202.272	  4.740	  5.010
202.276	  4.725	  4.985
202.280	  4.715	  4.990
202.284	  4.725	  4.995
202.288	  4.730	  4.990
202.292	  4.720	  4.980
202.296	  4.700	  4.975
202.300	  4.705	  4.975
202.304	  4.725	  4.985
202.308	  4.725	  4.980
202.312	  4.705	  4.970
202.316	  4.715	  4.990
202.320	  4.725	  4.975
202.324	  4.715	  4.965
202.328	  4.695	  4.960
202.332	  4.710	  4.970
202.336	  4.720	  4.970
202.340	  4.715	  4.960
202.344	  4.710	  4.950
202.348	  4.720	  4.955
202.352	  4.730	  4.970
202.356	  4.725	  4.970
202.360	  4.715	  4.955
202.364	  4.725	  4.960
202.368	  4.720	  4.965
202.372	  4.730	  4.960
202.376	  4.725	  4.950
202.380	  4.720	  4.950
202.384	  4.725	  4.960
202.388	  4.730	  4.960
202.392	  4.725	  4.940
202.396	  4.730	  4.940
202.400	  4.745	  4.945
202.404	  4.750	  4.965
202.408	  4.750	  4.960
202.412	  4.730	  4.950
202.416	  4.750	  4.980
202.420	  4.765	  4.985
202.424	  4.775	  5.055
202.428	  4.790	  5.335
202.432	  4.845	  5.825
202.436	  4.975	  5.815
202.440	  5.340	  5.485
202.444	  5.785	  5.360
202.448	  5.705	  5.330
202.452	  5.285	  5.285
202.456	  5.130	  5.240
202.460	  5.145	  5.135
202.464	  5.165	  4.980
202.468	  5.180	  4.735
202.472	  5.205	  4.405
202.476	  5.205	  4.070
202.480	  5.205	  3.715
202.484	  5.200	  3.335
202.488	  5.195	  3.010
202.492	  5.190	  2.745
202.496	  5.170	  2.555
202.500	  5.175	  2.510
202.504	  5.140	  2.300
202.508	  5.105	  2.170
202.512	  5.020	  2.105
202.516	  4.930	  2.085
202.520	  4.870	  2.070
202.524	  4.785	  2.045
202.528	  4.655	  2.030
202.532	  4.565	  2.050
202.536	  4.550	  2.050
202.540	  4.580	  2.045
202.544	  4.605	  2.050
202.548	  4.610	  2.090
202.552	  4.630	  2.140
202.556	  4.615	  2.220
202.560	  4.585	  2.355
202.564	  4.595	  2.535
202.568	  4.615	  2.765
202.572	  4.640	  3.045
202.576	  4.660	  3.360
202.580	  4.685	  3.690
202.584	  4.685	  4.005
202.588	  4.685	  4.320
202.592	  4.665	  4.605
202.596	  4.640	  4.865
202.600	  4.635	  4.940
202.604	  4.635	  5.315
202.608	  4.640	  5.510
202.612	  4.630	  5.650
202.616	  4.630	  5.750
202.620	  4.635	  5.810
202.624	  4.620	  5.850
202.628	  4.620	  5.900
202.632	  4.620	  5.955
202.636	  4.625	  5.995
202.640	  4.625	  6.025
202.644	  4.615	  6.060
202.648	  4.605	  6.090
202.652	  4.615	  6.130
202.656	  4.615	  6.160
202.660	  4.595	  6.180
202.664	  4.580	  6.230
202.668	  4.590	  6.255
202.672	  4.590	  6.280
202.676	  4.575	  6.295
202.680	  4.555	  6.335
202.684	  4.560	  6.380
202.688	  4.575	  6.410
202.692	  4.555	  6.435
202.696	  4.545	  6.470
202.700	  4.550	  6.485
202.704	  4.575	  6.555
202.708	  4.565	  6.575
202.712	  4.550	  6.620
202.716	  4.565	  6.670
202.720	  4.580	  6.720
202.724	  4.580	  6.745
202.728	  4.570	  6.775
202.732	  4.595	  6.815
202.736	  4.610	  6.845
202.740	  4.615	  6.865
202.744	  4.610	  6.890
202.748	  4.615	  6.910
202.752	  4.645	  6.935
202.756	  4.660	  6.935
202.760	  4.665	  6.920
202.764	  4.695	  6.920
202.768	  4.715	  6.910
202.772	  4.730	  6.870
202.776	  4.735	  6.830
202.780	  4.755	  6.775
202.784	  4.775	  6.730
202.788	  4.800	  6.660
202.792	  4.810	  6.570
202.796	  4.815	  6.495
202.800	  4.825	  6.465
202.804	  4.860	  6.325
202.808	  4.860	  6.225
202.812	  4.860	  6.140
202.816	  4.875	  6.065
202.820	  4.900	  5.985
202.824	  4.895	  5.895
202.828	  4.880	  5.810
202.832	  4.885	  5.750
202.836	  4.885	  5.695
202.840	  4.885	  5.615
202.844	  4.860	  5.545
202.848	  4.860	  5.510
202.852	  4.870	  5.470
202.856	  4.865	  5.430
202.860	  4.840	  5.390
202.864	  4.830	  5.355
202.868	  4.830	  5.350
202.872	  4.835	  5.320
202.876	  4.815	  5.285
202.880	  4.800	  5.270
202.884	  4.810	  5.275
202.888	  4.805	  5.255
202.892	  4.790	  5.240
202.896	  4.785	  5.240
202.900	  4.785	  5.245
202.904	  4.805	  5.240
202.908	  4.795	  5.225
202.912	  4.780	  5.225
202.916	  4.800	  5.235
202.920	  4.790	  5.215
202.924	  4.805	  5.220
202.928	  4.795	  5.220
202.932	  4.785	  5.225
202.936	  4.790	  5.230
202.940	  4.790	  5.220
202.944	  4.780	  5.215
202.948	  4.780	  5.220
202.952	  4.800	  5.230
202.956	  4.790	  5.230
202.960	  4.785	  5.215
202.964	  4.780	  5.225
202.968	  4.785	  5.225
202.972	  4.795	  5.220
202.976	  4.780	  5.200
202.980	  4.770	  5.205
202.984	  4.780	  5.215
202.988	  4.790	  5.220
202.992	  4.775	  5.200
202.996	  4.765	  5.190
203.000	  4.775	  5.190
203.004	  4.780	  5.195
203.008	  4.775	  5.170
203.012	  4.755	  5.185
203.016	  4.770	  5.175
203.020	  4.775	  5.175
203.024	  4.775	  5.155
203.028	  4.765	  5.145
203.032	  4.765	  5.145
203.036	  4.775	  5.155
203.040	  4.780	  5.140
203.044	  4.755	  5.120
203.048	  4.755	  5.130
203.052	  4.775	  5.135
203.056	  4.775	  5.120
203.060	  4.745	  5.105
203.064	  4.740	  5.105
203.068	  4.750	  5.105
203.072	  4.760	  5.085
203.076	  4.745	  5.080
203.080	  4.740	  5.070
203.084	  4.750	  5.080
203.088	  4.750	  5.075
203.092	  4.740	  5.065
203.096	  4.740	  5.055
203.100	  4.750	  5.060
203.104	  4.745	  5.065
203.108	  4.740	  5.055
203.112	  4.730	  5.030
203.116	  4.745	  5.035
203.120	  4.755	  5.045
203.124	  4.750	  5.030
203.128	  4.740	  5.020
203.132	  4.745	  5.035
203.136	  4.755	  5.030
203.140	  4.760	  5.020
203.144	  4.755	  5.005
203.148	  4.750	  5.015
203.152	  4.760	  5.020
203.156	  4.755	  5.005
203.160	  4.740	  5.005
203.164	  4.755	  5.010
203.168	  4.755	  5.015
203.172	  4.760	  5.010
203.176	  4.740	  4.995
203.180	  4.750	  4.990
203.184	  4.760	  5.000
203.188	  4.745	  5.000
203.192	  4.755	  4.990
203.196	  4.750	  4.980
203.200	  4.755	  4.985
203.204	  4.765	  4.990
203.208	  4.765	  4.975
203.212	  4.750	  4.980
203.216	  4.755	  4.995
203.220	  4.765	  4.990
203.224	  4.760	  4.975
203.228	  4.765	  4.975
203.232	  4.760	  4.980
203.236	  4.765	  4.990
203.240	  4.775	  4.970
203.244	  4.765	  4.965
203.248	  4.775	  4.985
203.252	  4.795	  4.990
203.256	  4.800	  5.000
203.260	  4.810	  5.030
203.264	  4.820	  5.205
203.268	  4.875	  5.730
203.272	  5.000	  5.900
203.276	  5.355	  5.535
203.280	  5.870	  5.360
203.284	  5.790	  5.300
203.288	  5.330	  5.225
203.292	  5.145	  5.095
203.296	  5.175	  4.915
203.300	  5.195	  4.845
203.304	  5.205	  4.395
203.308	  5.205	  4.060
203.312	  5.195	  3.750
203.316	  5.195	  3.510
203.320	  5.195	  3.275
203.324	  5.190	  3.020
203.328	  5.180	  2.740
203.332	  5.175	  2.540
203.336	  5.170	  2.390
203.340	  5.110	  2.275
203.344	  5.035	  2.175
203.348	  4.955	  2.130
203.352	  4.900	  2.115
203.356	  4.815	  2.075
203.360	  4.715	  2.065
203.364	  4.600	  2.070
203.368	  4.570	  2.070
203.372	  4.600	  2.080
203.376	  4.650	  2.080
203.380	  4.655	  2.120
203.384	  4.680	  2.185
203.388	  4.685	  2.280
203.392	  4.670	  2.435
203.396	  4.655	  2.660
203.400	  4.655	  2.735
203.404	  4.730	  3.285
203.408	  4.755	  3.645
203.412	  4.750	  4.015
203.416	  4.745	  4.360
203.420	  4.735	  4.660
203.424	  4.705	  4.930
203.428	  4.665	  5.175
203.432	  4.670	  5.420
203.436	  4.685	  5.630
203.440	  4.700	  5.760
203.444	  4.690	  5.835
203.448	  4.710	  5.910
203.452	  4.725	  5.960
203.456	  4.735	  5.985
203.460	  4.725	  6.020
203.464	  4.730	  6.070
203.468	  4.730	  6.100
203.472	  4.740	  6.110
203.476	  4.740	  6.130
203.480	  4.745	  6.150
203.484	  4.755	  6.190
203.488	  4.745	  6.205
203.492	  4.745	  6.220
203.496	  4.730	  6.255
203.500	  4.735	  6.275
203.504	  4.735	  6.345
203.508	  4.730	  6.375
203.512	  4.705	  6.410
203.516	  4.690	  6.460
203.520	  4.685	  6.490
203.524	  4.675	  6.515
203.528	  4.670	  6.555
203.532	  4.660	  6.600
203.536	  4.665	  6.630
203.540	  4.665	  6.660
203.544	  4.650	  6.690
203.548	  4.645	  6.730
203.552	  4.655	  6.765
203.556	  4.650	  6.780
203.560	  4.645	  6.800
203.564	  4.650	  6.830
203.568	  4.655	  6.860
203.572	  4.660	  6.865
203.576	  4.675	  6.880
203.580	  4.670	  6.875
203.584	  4.690	  6.890
203.588	  4.700	  6.875
203.592	  4.725	  6.850
203.596	  4.740	  6.825
203.600	  4.745	  6.810
203.604	  4.765	  6.745
203.608	  4.785	  6.675
203.612	  4.790	  6.610
203.616	  4.810	  6.550
203.620	  4.820	  6.480
203.624	  4.840	  6.390
203.628	  4.840	  6.310
203.632	  4.870	  6.230
203.636	  4.880	  6.145
203.640	  4.885	  6.045
203.644	  4.885	  5.955
203.648	  4.875	  5.885
203.652	  4.895	  5.815
203.656	  4.900	  5.740
203.660	  4.890	  5.665
203.664	  4.885	  5.610
203.668	  4.885	  5.570
203.672	  4.895	  5.505
203.676	  4.875	  5.450
203.680	  4.865	  5.415
203.684	  4.870	  5.385
203.688	  4.865	  5.350
203.692	  4.850	  5.325
203.696	  4.835	  5.295
203.700	  4.845	  5.285
203.704	  4.855	  5.280
203.708	  4.850	  5.255
203.712	  4.835	  5.255
203.716	  4.835	  5.250
203.720	  4.835	  5.240
203.724	  4.825	  5.225
203.728	  4.825	  5.220
203.732	  4.815	  5.225
203.736	  4.830	  5.230
203.740	  4.830	  5.220
203.744	  4.805	  5.205
203.748	  4.800	  5.215
203.752	  4.805	  5.230
203.756	  4.815	  5.205
203.760	  4.805	  5.215
203.764	  4.810	  5.215
203.768	  4.825	  5.220
203.772	  4.825	  5.215
203.776	  4.815	  5.205
203.780	  4.805	  5.200
203.784	  4.820	  5.215
203.788	  4.815	  5.210
203.792	  4.800	  5.205
203.796	  4.790	  5.200
203.800	  4.800	  5.200
203.804	  4.815	  5.185
203.808	  4.810	  5.185
203.812	  4.790	  5.180
203.816	  4.805	  5.190
203.820	  4.810	  5.175
203.824	  4.805	  5.170
203.828	  4.785	  5.155
203.832	  4.795	  5.170
203.836	  4.795	  5.170
203.840	  4.800	  5.150
203.844	  4.780	  5.135
203.848	  4.780	  5.135
203.852	  4.790	  5.125
203.856	  4.805	  5.120
203.860	  4.790	  5.105
203.864	  4.765	  5.110
203.868	  4.790	  5.115
203.872	  4.795	  5.105
203.876	  4.775	  5.085
203.880	  4.780	  5.080
203.884	  4.790	  5.080
203.888	  4.800	  5.070
203.892	  4.790	  5.060
203.896	  4.775	  5.055
203.900	  4.775	  5.055
203.904	  4.785	  5.050
203.908	  4.780	  5.035
203.912	  4.785	  5.040
203.916	  4.775	  5.045
203.920	  4.780	  5.045
203.924	  4.775	  5.025
203.928	  4.770	  5.025
203.932	  4.765	  5.020
203.936	  4.790	  5.020
203.940	  4.790	  5.015
203.944	  4.780	  5.005
203.948	  4.775	  5.020
203.952	  4.775	  5.015
203.956	  4.785	  4.995
203.960	  4.790	  4.995
203.964	  4.790	  4.995
203.968	  4.800	  5.005
203.972	  4.790	  4.995
203.976	  4.770	  4.990
203.980	  4.750	  4.985
203.984	  4.765	  5.000
203.988	  4.790	  4.995
203.992	  4.800	  4.980
203.996	  4.785	  4.980
204.000	  4.785	  4.985
204.004	  4.780	  4.995
204.008	  4.780	  4.980
204.012	  4.765	  4.970
204.016	  4.780	  4.985
204.020	  4.790	  4.985
204.024	  4.800	  4.965
204.028	  4.780	  4.960
204.032	  4.795	  4.975
204.036	  4.815	  4.975
204.040	  4.815	  4.975
204.044	  4.790	  4.965
204.048	  4.785	  4.970
204.052	  4.785	  4.975
204.056	  4.790	  4.970
204.060	  4.790	  4.950
204.064	  4.795	  4.965
204.068	  4.810	  4.975
204.072	  4.820	  4.975
204.076	  4.830	  4.975
204.080	  4.835	  5.035
204.084	  4.865	  5.275
204.088	  4.900	  5.775
204.092	  4.955	  5.905
204.096	  5.215	  5.555
204.100	  5.345	  5.460
204.104	  5.830	  5.305
204.108	  5.440	  5.215
204.112	  5.205	  5.095
204.116	  5.205	  4.925
204.120	  5.245	  4.695
204.124	  5.250	  4.415
204.128	  5.220	  4.080
204.132	  5.235	  3.800
204.136	  5.245	  3.575
204.140	  5.220	  3.330
204.144	  5.180	  3.070
204.148	  5.190	  2.790
204.152	  5.185	  2.585
204.156	  5.155	  2.430
204.160	  5.100	  2.310
204.164	  5.045	  2.220
204.168	  4.975	  2.160
204.172	  4.885	  2.120
204.176	  4.785	  2.085
204.180	  4.690	  2.080
204.184	  4.585	  2.080
204.188	  4.520	  2.070
204.192	  4.525	  2.065
204.196	  4.565	  2.090
204.200	  4.585	  2.100
204.204	  4.630	  2.180
204.208	  4.625	  2.280
204.212	  4.620	  2.460
204.216	  4.655	  2.690
204.220	  4.670	  2.985
204.224	  4.710	  3.300
204.228	  4.745	  3.640
204.232	  4.780	  3.985
204.236	  4.790	  4.285
204.240	  4.765	  4.550
204.244	  4.745	  4.815
204.248	  4.745	  5.060
204.252	  4.755	  5.290
204.256	  4.765	  5.490
204.260	  4.760	  5.630
204.264	  4.770	  5.725
204.268	  4.785	  5.795
204.272	  4.785	  5.850
204.276	  4.765	  5.880
204.280	  4.770	  5.935
204.284	  4.780	  5.985
204.288	  4.790	  6.020
204.292	  4.785	  6.040
204.296	  4.785	  6.075
204.300	  4.790	  6.095
204.304	  4.790	  6.160
204.308	  4.785	  6.190
204.312	  4.785	  6.225
204.316	  4.810	  6.265
204.320	  4.815	  6.295
204.324	  4.800	  6.325
204.328	  4.785	  6.355
204.332	  4.780	  6.410
204.336	  4.785	  6.445
204.340	  4.790	  6.485
204.344	  4.815	  6.505
204.348	  4.830	  6.555
204.352	  4.825	  6.590
204.356	  4.810	  6.610
204.360	  4.805	  6.630
204.364	  4.825	  6.670
204.368	  4.845	  6.695
204.372	  4.870	  6.705
204.376	  4.855	  6.725
204.380	  4.860	  6.745
204.384	  4.880	  6.770
204.388	  4.880	  6.785
204.392	  4.890	  6.780
204.396	  4.895	  6.805
204.400	  4.900	  6.820
204.404	  4.915	  6.840
204.408	  4.910	  6.815
204.412	  4.890	  6.780
204.416	  4.870	  6.770
204.420	  4.890	  6.725
204.424	  4.915	  6.660
204.428	  4.930	  6.605
204.432	  4.925	  6.560
204.436	  4.915	  6.485
204.440	  4.920	  6.405
204.444	  4.915	  6.320
204.448	  4.940	  6.265
204.452	  4.960	  6.180
204.456	  4.965	  6.095
204.460	  4.970	  6.000
204.464	  4.990	  5.915
204.468	  5.000	  5.855
204.472	  4.990	  5.775
204.476	  4.965	  5.690
204.480	  4.950	  5.630
204.484	  4.960	  5.580
204.488	  4.940	  5.515
204.492	  4.925	  5.460
204.496	  4.920	  5.415
204.500	  4.925	  5.410
204.504	  4.910	  5.345
204.508	  4.910	  5.310
204.512	  4.885	  5.295
204.516	  4.895	  5.280
204.520	  4.885	  5.260
204.524	  4.870	  5.235
204.528	  4.870	  5.215
204.532	  4.895	  5.215
204.536	  4.900	  5.215
204.540	  4.890	  5.195
204.544	  4.870	  5.190
204.548	  4.870	  5.200
204.552	  4.870	  5.210
204.556	  4.870	  5.200
204.560	  4.860	  5.185
204.564	  4.855	  5.195
204.568	  4.865	  5.210
204.572	  4.855	  5.200
204.576	  4.850	  5.190
204.580	  4.840	  5.185
204.584	  4.845	  5.205
204.588	  4.855	  5.195
204.592	  4.855	  5.195
204.596	  4.845	  5.190
204.600	  4.840	  5.200
204.604	  4.850	  5.205
204.608	  4.845	  5.200
204.612	  4.820	  5.190
204.616	  4.830	  5.205
204.620	  4.845	  5.195
204.624	  4.840	  5.185
204.628	  4.825	  5.175
204.632	  4.830	  5.195
204.636	  4.830	  5.190
204.640	  4.825	  5.175
204.644	  4.810	  5.160
204.648	  4.810	  5.165
204.652	  4.820	  5.165
204.656	  4.820	  5.155
204.660	  4.815	  5.150
204.664	  4.810	  5.150
204.668	  4.825	  5.160
204.672	  4.825	  5.140
204.676	  4.805	  5.115
204.680	  4.805	  5.125
204.684	  4.820	  5.135
204.688	  4.815	  5.115
204.692	  4.805	  5.090
204.696	  4.790	  5.090
204.700	  4.795	  5.100
204.704	  4.810	  5.105
204.708	  4.795	  5.085
204.712	  4.780	  5.075
204.716	  4.795	  5.085
204.720	  4.815	  5.070
204.724	  4.805	  5.055
204.728	  4.795	  5.050
204.732	  4.790	  5.055
204.736	  4.800	  5.060
204.740	  4.790	  5.050
204.744	  4.775	  5.040
204.748	  4.785	  5.040
204.752	  4.800	  5.055
204.756	  4.805	  5.040
204.760	  4.785	  5.030
204.764	  4.775	  5.030
204.768	  4.795	  5.035
204.772	  4.795	  5.025
204.776	  4.780	  5.005
204.780	  4.775	  5.010
204.784	  4.795	  5.015
204.788	  4.800	  5.025
204.792	  4.795	  5.010
204.796	  4.780	  5.005
204.800	  4.785	  5.005
204.804	  4.800	  5.015
204.808	  4.790	  5.000
204.812	  4.785	  5.005
204.816	  4.790	  5.010
204.820	  4.815	  5.005
204.824	  4.800	  5.000
204.828	  4.780	  4.980
204.832	  4.780	  5.000
204.836	  4.790	  5.005
204.840	  4.800	  4.995
204.844	  4.795	  4.985
204.848	  4.790	  4.985
204.852	  4.810	  4.995
204.856	  4.805	  4.985
204.860	  4.795	  4.970
204.864	  4.800	  4.985
204.868	  4.800	  4.985
204.872	  4.815	  4.995
204.876	  4.805	  4.980
204.880	  4.805	  4.990
204.884	  4.825	  5.030
204.888	  4.840	  5.085
204.892	  4.840	  5.330
204.896	  4.875	  5.835
204.900	  4.900	  5.975
204.904	  5.230	  5.550
204.908	  5.710	  5.390
204.912	  5.715	  5.360
204.916	  5.335	  5.325
204.920	  5.180	  5.275
204.924	  5.215	  5.155
204.928	  5.240	  5.000
204.932	  5.265	  4.730
204.936	  5.285	  4.385
204.940	  5.300	  4.000
204.944	  5.300	  3.600
204.948	  5.290	  3.260
204.952	  5.285	  3.000
204.956	  5.300	  2.760
204.960	  5.265	  2.600
204.964	  5.240	  2.460
204.968	  5.225	  2.310
204.972	  5.160	  2.210
204.976	  5.055	  2.150
204.980	  4.955	  2.120
204.984	  4.900	  2.120
204.988	  4.780	  2.095
204.992	  4.655	  2.085
204.996	  4.615	  2.080
205.000	  4.625	  2.085
205.004	  4.690	  2.110
205.008	  4.685	  2.130
205.012	  4.655	  2.210
205.016	  4.635	  2.350
205.020	  4.645	  2.535
205.024	  4.655	  2.750
205.028	  4.670	  3.030
205.032	  4.700	  3.400
205.036	  4.720	  3.760
205.040	  4.725	  4.070
205.044	  4.715	  4.385
205.048	  4.710	  4.690
205.052	  4.705	  4.930
205.056	  4.705	  5.130
205.060	  4.670	  5.340
205.064	  4.680	  5.550
205.068	  4.705	  5.700
205.072	  4.710	  5.785
205.076	  4.700	  5.840
205.080	  4.700	  5.905
205.084	  4.725	  5.955
205.088	  4.735	  5.995
205.092	  4.720	  6.025
205.096	  4.710	  6.075
205.100	  4.710	  6.095
205.104	  4.730	  6.145
205.108	  4.730	  6.175
205.112	  4.710	  6.205
205.116	  4.715	  6.255
205.120	  4.730	  6.280
205.124	  4.720	  6.305
205.128	  4.695	  6.340
205.132	  4.705	  6.400
205.136	  4.715	  6.430
205.140	  4.710	  6.470
205.144	  4.695	  6.510
205.148	  4.695	  6.560
205.152	  4.710	  6.610
205.156	  4.725	  6.660
205.160	  4.705	  6.680
205.164	  4.685	  6.745
205.168	  4.715	  6.780
205.172	  4.725	  6.810
205.176	  4.720	  6.845
205.180	  4.730	  6.890
205.184	  4.750	  6.940
205.188	  4.760	  6.970
205.192	  4.765	  6.995
205.196	  4.775	  7.005
205.200	  4.780	  7.015
205.204	  4.815	  7.010
205.208	  4.820	  6.985
205.212	  4.840	  6.950
205.216	  4.885	  6.935
205.220	  4.900	  6.885
205.224	  4.920	  6.820
205.228	  4.920	  6.745
205.232	  4.940	  6.680
205.236	  4.965	  6.585
205.240	  4.975	  6.495
205.244	  4.970	  6.400
205.248	  4.990	  6.330
205.252	  5.000	  6.245
205.256	  5.010	  6.170
205.260	  4.990	  6.080
205.264	  4.980	  6.000
205.268	  4.980	  5.920
205.272	  4.980	  5.835
205.276	  4.955	  5.750
205.280	  4.955	  5.675
205.284	  4.970	  5.625
205.288	  4.950	  5.575
205.292	  4.940	  5.510
205.296	  4.930	  5.465
205.300	  4.925	  5.460
205.304	  4.925	  5.405
205.308	  4.900	  5.365
205.312	  4.880	  5.335
205.316	  4.890	  5.325
205.320	  4.900	  5.310
205.324	  4.885	  5.285
205.328	  4.875	  5.255
205.332	  4.875	  5.265
205.336	  4.875	  5.260
205.340	  4.865	  5.245
205.344	  4.850	  5.230
205.348	  4.855	  5.245
205.352	  4.855	  5.245
205.356	  4.865	  5.235
205.360	  4.860	  5.220
205.364	  4.860	  5.230
205.368	  4.855	  5.240
205.372	  4.865	  5.240
205.376	  4.855	  5.215
205.380	  4.850	  5.225
205.384	  4.855	  5.235
205.388	  4.855	  5.225
205.392	  4.860	  5.235
205.396	  4.840	  5.230
205.400	  4.835	  5.235
205.404	  4.855	  5.235
205.408	  4.860	  5.235
205.412	  4.840	  5.225
205.416	  4.850	  5.240
205.420	  4.875	  5.235
205.424	  4.850	  5.225
205.428	  4.850	  5.215
205.432	  4.850	  5.230
205.436	  4.860	  5.220
205.440	  4.845	  5.205
205.444	  4.835	  5.195
205.448	  4.840	  5.200
205.452	  4.850	  5.205
205.456	  4.855	  5.190
205.460	  4.835	  5.185
205.464	  4.835	  5.185
205.468	  4.840	  5.180
205.472	  4.845	  5.165
205.476	  4.825	  5.150
205.480	  4.820	  5.150
205.484	  4.835	  5.160
205.488	  4.840	  5.145
205.492	  4.835	  5.135
205.496	  4.820	  5.130
205.500	  4.825	  5.130
205.504	  4.835	  5.125
205.508	  4.830	  5.110
205.512	  4.805	  5.090
205.516	  4.830	  5.110
205.520	  4.840	  5.100
205.524	  4.825	  5.105
205.528	  4.820	  5.090
205.532	  4.820	  5.090
205.536	  4.825	  5.105
205.540	  4.820	  5.075
205.544	  4.810	  5.065
205.548	  4.815	  5.070
205.552	  4.830	  5.080
205.556	  4.820	  5.065
205.560	  4.810	  5.050
205.564	  4.810	  5.055
205.568	  4.820	  5.065
205.572	  4.820	  5.060
205.576	  4.795	  5.050
205.580	  4.810	  5.050
205.584	  4.810	  5.065
205.588	  4.825	  5.050
205.592	  4.805	  5.045
205.596	  4.810	  5.040
205.600	  4.810	  5.035
205.604	  4.830	  5.045
205.608	  4.825	  5.030
205.612	  4.830	  5.025
205.616	  4.835	  5.035
205.620	  4.825	  5.045
205.624	  4.820	  5.030
205.628	  4.825	  5.020
205.632	  4.830	  5.030
205.636	  4.830	  5.035
205.640	  4.830	  5.025
205.644	  4.825	  5.020
205.648	  4.830	  5.020
205.652	  4.840	  5.020
205.656	  4.835	  5.015
205.660	  4.825	  5.010
205.664	  4.820	  5.020
205.668	  4.835	  5.020
205.672	  4.840	  5.020
205.676	  4.825	  5.020
205.680	  4.840	  5.040
205.684	  4.865	  5.100
205.688	  4.885	  5.275
205.692	  4.910	  5.760
205.696	  4.990	  6.025
205.700	  5.025	  6.005
205.704	  5.715	  5.475
205.708	  5.955	  5.390
205.712	  5.585	  5.310
205.716	  5.255	  5.230
205.720	  5.230	  5.090
205.724	  5.270	  4.865
205.728	  5.265	  4.585
205.732	  5.270	  4.295
205.736	  5.285	  3.980
205.740	  5.300	  3.690
205.744	  5.280	  3.420
205.748	  5.280	  3.210
205.752	  5.285	  2.945
205.756	  5.275	  2.650
205.760	  5.245	  2.465
205.764	  5.200	  2.345
205.768	  5.145	  2.250
205.772	  5.050	  2.155
205.776	  4.960	  2.115
205.780	  4.885	  2.110
205.784	  4.790	  2.115
205.788	  4.680	  2.100
205.792	  4.605	  2.090
205.796	  4.635	  2.100
205.800	  4.660	  2.105
205.804	  4.735	  2.150
205.808	  4.740	  2.200
205.812	  4.725	  2.330
205.816	  4.720	  2.525
205.820	  4.735	  2.760
205.824	  4.750	  3.060
205.828	  4.780	  3.420
205.832	  4.830	  3.810
205.836	  4.830	  4.170
205.840	  4.805	  4.480
205.844	  4.765	  4.765
205.848	  4.760	  5.065
205.852	  4.765	  5.310
205.856	  4.755	  5.520
205.860	  4.770	  5.675
205.864	  4.775	  5.780
205.868	  4.795	  5.845
205.872	  4.785	  5.900
205.876	  4.780	  5.945
205.880	  4.770	  6.000
205.884	  4.795	  6.040
205.888	  4.790	  6.080
205.892	  4.790	  6.105
205.896	  4.785	  6.145
205.900	  4.795	  6.160
205.904	  4.780	  6.215
205.908	  4.780	  6.245
205.912	  4.765	  6.280
205.916	  4.770	  6.335
205.920	  4.780	  6.375
205.924	  4.780	  6.395
205.928	  4.765	  6.430
205.932	  4.785	  6.470
205.936	  4.785	  6.515
205.940	  4.770	  6.550
205.944	  4.770	  6.590
205.948	  4.785	  6.635
205.952	  4.790	  6.680
205.956	  4.795	  6.715
205.960	  4.780	  6.750
205.964	  4.800	  6.805
205.968	  4.810	  6.845
205.972	  4.810	  6.870
205.976	  4.810	  6.890
205.980	  4.805	  6.920
205.984	  4.830	  6.950
205.988	  4.835	  6.955
205.992	  4.845	  6.950
205.996	  4.855	  6.940
206.000	  4.865	  6.935
206.004	  4.885	  6.910
206.008	  4.895	  6.875
206.012	  4.900	  6.835
206.016	  4.925	  6.800
206.020	  4.960	  6.735
206.024	  4.960	  6.670
206.028	  4.960	  6.590
206.032	  4.970	  6.525
206.036	  4.995	  6.430
206.040	  4.985	  6.325
206.044	  4.990	  6.225
206.048	  5.010	  6.155
206.052	  5.030	  6.055
206.056	  5.030	  5.965
206.060	  5.025	  5.885
206.064	  5.015	  5.805
206.068	  5.020	  5.745
206.072	  5.010	  5.660
206.076	  4.990	  5.595
206.080	  4.980	  5.550
206.084	  4.975	  5.505
206.088	  4.975	  5.450
206.092	  4.965	  5.390
206.096	  4.960	  5.365
206.100	  4.955	  5.370
206.104	  4.945	  5.315
206.108	  4.920	  5.285
206.112	  4.910	  5.270
206.116	  4.910	  5.270
206.120	  4.905	  5.255
206.124	  4.905	  5.235
206.128	  4.890	  5.230
206.132	  4.890	  5.235
206.136	  4.910	  5.225
206.140	  4.900	  5.215
206.144	  4.880	  5.205
206.148	  4.880	  5.205
206.152	  4.895	  5.215
206.156	  4.900	  5.215
206.160	  4.900	  5.200
206.164	  4.890	  5.210
206.168	  4.895	  5.240
206.172	  4.890	  5.250
206.176	  4.880	  5.240
206.180	  4.890	  5.255
206.184	  4.905	  5.270
206.188	  4.895	  5.265
206.192	  4.870	  5.240
206.196	  4.870	  5.245
206.200	  4.875	  5.250
206.204	  4.895	  5.255
206.208	  4.900	  5.245
206.212	  4.890	  5.240
206.216	  4.900	  5.250
206.220	  4.910	  5.240
206.224	  4.895	  5.210
206.228	  4.905	  5.180
206.232	  4.920	  5.175
206.236	  4.915	  5.160
206.240	  4.915	  5.140
206.244	  4.900	  5.120
206.248	  4.910	  5.115
206.252	  4.910	  5.115
206.256	  4.915	  5.095
206.260	  4.900	  5.095
206.264	  4.900	  5.110
206.268	  4.905	  5.125
206.272	  4.885	  5.115
206.276	  4.870	  5.095
206.280	  4.860	  5.090
206.284	  4.865	  5.105
206.288	  4.850	  5.085
206.292	  4.840	  5.080
206.296	  4.825	  5.075
206.300	  4.835	  5.090
206.304	  4.845	  5.070
206.308	  4.840	  5.050
206.312	  4.820	  5.045
206.316	  4.825	  5.055
206.320	  4.840	  5.055
206.324	  4.830	  5.040
206.328	  4.820	  5.030
206.332	  4.830	  5.030
206.336	  4.820	  5.040
206.340	  4.815	  5.020
206.344	  4.810	  5.010
206.348	  4.810	  5.005
206.352	  4.835	  5.005
206.356	  4.825	  5.005
206.360	  4.800	  5.000
206.364	  4.795	  5.005
206.368	  4.810	  5.010
206.372	  4.810	  4.995
206.376	  4.815	  4.990
206.380	  4.810	  4.990
206.384	  4.810	  5.015
206.388	  4.810	  4.995
206.392	  4.825	  4.975
206.396	  4.825	  4.975
206.400	  4.835	  4.975
206.404	  4.825	  4.995
206.408	  4.810	  4.980
206.412	  4.795	  4.975
206.416	  4.805	  4.990
206.420	  4.830	  4.990
206.424	  4.820	  4.985
206.428	  4.835	  4.975
206.432	  4.820	  4.990
206.436	  4.825	  4.995
206.440	  4.815	  4.980
206.444	  4.805	  4.970
206.448	  4.820	  4.980
206.452	  4.845	  4.985
206.456	  4.840	  4.975
206.460	  4.835	  4.965
206.464	  4.835	  4.975
206.468	  4.840	  4.980
206.472	  4.850	  4.975
206.476	  4.835	  4.965
206.480	  4.835	  4.970
206.484	  4.835	  4.990
206.488	  4.845	  4.980
206.492	  4.845	  4.975
206.496	  4.850	  4.985
206.500	  4.855	  5.000
206.504	  4.880	  5.015
206.508	  4.890	  5.095
206.512	  4.905	  5.480
206.516	  4.980	  5.925
206.520	  5.160	  5.780
206.524	  5.590	  5.485
206.528	  5.995	  5.390
206.532	  5.755	  5.345
206.536	  5.365	  5.285
206.540	  5.270	  5.215
206.544	  5.285	  5.115
206.548	  5.290	  4.970
206.552	  5.300	  4.740
206.556	  5.310	  4.420
206.560	  5.310	  4.070
206.564	  5.325	  3.735
206.568	  5.325	  3.385
206.572	  5.300	  3.045
206.576	  5.280	  2.825
206.580	  5.280	  2.665
206.584	  5.290	  2.555
206.588	  5.280	  2.480
206.592	  5.275	  2.390
206.596	  5.255	  2.285
206.600	  5.250	  2.250
206.604	  5.145	  2.165
206.608	  5.065	  2.140
206.612	  5.005	  2.100
206.616	  4.930	  2.105
206.620	  4.820	  2.095
206.624	  4.750	  2.080
206.628	  4.755	  2.085
206.632	  4.805	  2.110
206.636	  4.810	  2.140
206.640	  4.770	  2.180
206.644	  4.745	  2.260
206.648	  4.730	  2.405
206.652	  4.735	  2.585
206.656	  4.740	  2.785
206.660	  4.730	  3.010
206.664	  4.730	  3.295
206.668	  4.750	  3.605
206.672	  4.760	  3.895
206.676	  4.755	  4.150
206.680	  4.770	  4.425
206.684	  4.785	  4.690
206.688	  4.770	  4.920
206.692	  4.740	  5.125
206.696	  4.705	  5.310
206.700	  4.700	  5.370
206.704	  4.740	  5.645
206.708	  4.730	  5.730
206.712	  4.725	  5.805
206.716	  4.750	  5.875
206.720	  4.760	  5.930
206.724	  4.740	  5.970
206.728	  4.740	  6.005
206.732	  4.750	  6.065
206.736	  4.765	  6.100
206.740	  4.760	  6.150
206.744	  4.750	  6.185
206.748	  4.760	  6.240
206.752	  4.770	  6.285
206.756	  4.780	  6.330
206.760	  4.750	  6.365
206.764	  4.745	  6.430
206.768	  4.760	  6.475
206.772	  4.770	  6.515
206.776	  4.775	  6.555
206.780	  4.780	  6.620
206.784	  4.790	  6.665
206.788	  4.785	  6.710
206.792	  4.770	  6.745
206.796	  4.760	  6.795
206.800	  4.760	  6.810
206.804	  4.785	  6.875
206.808	  4.790	  6.910
206.812	  4.790	  6.950
206.816	  4.795	  6.995
206.820	  4.810	  7.015
206.824	  4.820	  7.035
206.828	  4.815	  7.055
206.832	  4.820	  7.080
206.836	  4.820	  7.100
206.840	  4.845	  7.095
206.844	  4.875	  7.080
206.848	  4.875	  7.090
206.852	  4.900	  7.070
206.856	  4.905	  7.030
206.860	  4.900	  6.980
206.864	  4.925	  6.950
206.868	  4.940	  6.910
206.872	  4.960	  6.825
206.876	  4.975	  6.765
206.880	  4.970	  6.705
206.884	  4.985	  6.640
206.888	  4.975	  6.560
206.892	  4.970	  6.465
206.896	  4.970	  6.395
206.900	  4.975	  6.375
206.904	  5.000	  6.240
206.908	  5.005	  6.150
206.912	  5.000	  6.070
206.916	  5.010	  6.020
206.920	  5.010	  5.925
206.924	  4.990	  5.855
206.928	  4.965	  5.780
206.932	  4.980	  5.735
206.936	  4.990	  5.680
206.940	  4.985	  5.620
206.944	  4.970	  5.565
206.948	  4.980	  5.530
206.952	  4.980	  5.490
206.956	  4.965	  5.450
206.960	  4.960	  5.405
206.964	  4.955	  5.385
206.968	  4.960	  5.355
206.972	  4.950	  5.335
206.976	  4.935	  5.305
206.980	  4.935	  5.280
206.984	  4.955	  5.270
206.988	  4.960	  5.240
206.992	  4.925	  5.215
206.996	  4.900	  5.205
207.000	  4.905	  5.210
207.004	  4.940	  5.190
207.008	  4.945	  5.170
207.012	  4.925	  5.160
207.016	  4.945	  5.170
207.020	  4.945	  5.155
207.024	  4.930	  5.150
207.028	  4.915	  5.130
207.032	  4.920	  5.155
207.036	  4.925	  5.155
207.040	  4.925	  5.140
207.044	  4.915	  5.135
207.048	  4.930	  5.140
207.052	  4.935	  5.140
207.056	  4.930	  5.130
207.060	  4.925	  5.125
207.064	  4.905	  5.130
207.068	  4.920	  5.140
207.072	  4.920	  5.130
207.076	  4.905	  5.120
207.080	  4.905	  5.140
207.084	  4.910	  5.150
207.088	  4.915	  5.130
207.092	  4.910	  5.115
207.096	  4.885	  5.130
207.100	  4.890	  5.135
207.104	  4.905	  5.140
207.108	  4.900	  5.125
207.112	  4.890	  5.120
207.116	  4.895	  5.125
207.120	  4.905	  5.120
207.124	  4.890	  5.115
207.128	  4.895	  5.105
207.132	  4.880	  5.125
207.136	  4.880	  5.125
207.140	  4.875	  5.105
207.144	  4.870	  5.095
207.148	  4.875	  5.095
207.152	  4.880	  5.095
207.156	  4.875	  5.090
207.160	  4.870	  5.080
207.164	  4.870	  5.070
207.168	  4.880	  5.085
207.172	  4.870	  5.070
207.176	  4.855	  5.050
207.180	  4.845	  5.055
207.184	  4.865	  5.060
207.188	  4.855	  5.050
207.192	  4.860	  5.040
207.196	  4.855	  5.040
207.200	  4.865	  5.050
207.204	  4.855	  5.040
207.208	  4.845	  5.025
207.212	  4.845	  5.015
207.216	  4.860	  5.030
207.220	  4.870	  5.030
207.224	  4.855	  5.010
207.228	  4.840	  5.000
207.232	  4.845	  5.020
207.236	  4.850	  5.025
207.240	  4.845	  5.000
207.244	  4.835	  4.990
207.248	  4.850	  5.010
207.252	  4.855	  5.010
207.256	  4.860	  5.015
207.260	  4.845	  5.015
207.264	  4.850	  5.040
207.268	  4.845	  5.045
207.272	  4.840	  5.040
207.276	  4.820	  5.030
207.280	  4.825	  5.030
207.284	  4.825	  5.045
207.288	  4.850	  5.040
207.292	  4.850	  5.025
207.296	  4.845	  5.030
207.300	  4.850	  5.035
207.304	  4.865	  5.020
207.308	  4.860	  4.995
207.312	  4.865	  4.980
207.316	  4.890	  4.970
207.320	  4.900	  4.955
207.324	  4.885	  4.945
207.328	  4.885	  4.930
207.332	  4.895	  4.935
207.336	  4.900	  4.930
207.340	  4.895	  4.915
207.344	  4.890	  4.915
207.348	  4.890	  4.945
207.352	  4.900	  4.955
207.356	  4.895	  4.945
207.360	  4.865	  4.935
207.364	  4.855	  4.955
207.368	  4.865	  4.960
207.372	  4.870	  4.980
207.376	  4.870	  5.060
207.380	  4.895	  5.395
207.384	  4.960	  5.840
207.388	  5.085	  5.740
207.392	  5.435	  5.445
207.396	  5.845	  5.355
207.400	  5.915	  5.335
207.404	  5.345	  5.290
207.408	  5.225	  5.225
207.412	  5.260	  5.140
207.416	  5.295	  5.010
207.420	  5.325	  4.790
207.424	  5.350	  4.510
207.428	  5.375	  4.195
207.432	  5.410	  3.920
207.436	  5.425	  3.600
207.440	  5.415	  3.330
207.444	  5.410	  3.155
207.448	  5.465	  3.035
207.452	  5.510	  2.920
207.456	  5.515	  2.770
207.460	  5.500	  2.580
207.464	  5.490	  2.425
207.468	  5.440	  2.335
207.472	  5.360	  2.280
207.476	  5.290	  2.200
207.480	  5.185	  2.160
207.484	  5.055	  2.135
207.488	  4.955	  2.105
207.492	  4.910	  2.090
207.496	  4.925	  2.090
207.500	  4.940	  2.095
207.504	  4.915	  2.125
207.508	  4.855	  2.180
207.512	  4.795	  2.290
207.516	  4.760	  2.445
207.520	  4.745	  2.625
207.524	  4.735	  2.835
207.528	  4.725	  3.115
207.532	  4.735	  3.450
207.536	  4.730	  3.790
207.540	  4.715	  4.090
207.544	  4.695	  4.410
207.548	  4.690	  4.695
207.552	  4.685	  4.950
207.556	  4.665	  5.175
207.560	  4.635	  5.360
207.564	  4.635	  5.530
207.568	  4.665	  5.655
207.572	  4.655	  5.745
207.576	  4.645	  5.800
207.580	  4.665	  5.865
207.584	  4.685	  5.930
207.588	  4.690	  5.970
207.592	  4.680	  6.000
207.596	  4.665	  6.055
207.600	  4.670	  6.075
207.604	  4.685	  6.145
207.608	  4.685	  6.170
207.612	  4.680	  6.215
207.616	  4.680	  6.270
207.620	  4.685	  6.305
207.624	  4.680	  6.345
207.628	  4.665	  6.390
207.632	  4.685	  6.440
207.636	  4.695	  6.480
207.640	  4.690	  6.520
207.644	  4.680	  6.565
207.648	  4.680	  6.625
207.652	  4.700	  6.675
207.656	  4.705	  6.705
207.660	  4.695	  6.750
207.664	  4.685	  6.800
207.668	  4.705	  6.850
207.672	  4.710	  6.870
207.676	  4.700	  6.910
207.680	  4.710	  6.950
207.684	  4.725	  6.995
207.688	  4.735	  7.010
207.692	  4.745	  7.000
207.696	  4.750	  7.030
207.700	  4.770	  7.040
207.704	  4.775	  7.030
207.708	  4.780	  6.995
207.712	  4.790	  6.985
207.716	  4.815	  6.975
207.720	  4.835	  6.920
207.724	  4.840	  6.855
207.728	  4.820	  6.800
207.732	  4.855	  6.750
207.736	  4.860	  6.695
207.740	  4.875	  6.600
207.744	  4.875	  6.525
207.748	  4.895	  6.455
207.752	  4.905	  6.375
207.756	  4.910	  6.280
207.760	  4.900	  6.195
207.764	  4.915	  6.115
207.768	  4.920	  6.040
207.772	  4.915	  5.955
207.776	  4.905	  5.890
207.780	  4.920	  5.820
207.784	  4.930	  5.760
207.788	  4.920	  5.685
207.792	  4.910	  5.605
207.796	  4.905	  5.565
207.800	  4.910	  5.545
207.804	  4.910	  5.470
207.808	  4.895	  5.410
207.812	  4.875	  5.355
207.816	  4.890	  5.355
207.820	  4.885	  5.320
207.824	  4.885	  5.280
207.828	  4.870	  5.255
207.832	  4.885	  5.235
207.836	  4.870	  5.225
207.840	  4.865	  5.190
207.844	  4.860	  5.170
207.848	  4.865	  5.160
207.852	  4.880	  5.155
207.856	  4.875	  5.140
207.860	  4.860	  5.115
207.864	  4.855	  5.125
207.868	  4.865	  5.125
207.872	  4.875	  5.105
207.876	  4.855	  5.090
207.880	  4.855	  5.105
207.884	  4.860	  5.100
207.888	  4.865	  5.095
207.892	  4.865	  5.080
207.896	  4.860	  5.090
207.900	  4.870	  5.090
207.904	  4.875	  5.100
207.908	  4.865	  5.085
207.912	  4.840	  5.085
207.916	  4.860	  5.100
207.920	  4.865	  5.100
207.924	  4.865	  5.100
207.928	  4.850	  5.080
207.932	  4.865	  5.105
207.936	  4.870	  5.110
207.940	  4.870	  5.090
207.944	  4.855	  5.090
207.948	  4.855	  5.095
207.952	  4.865	  5.100
207.956	  4.845	  5.105
207.960	  4.845	  5.080
207.964	  4.850	  5.095
207.968	  4.850	  5.105
207.972	  4.860	  5.105
207.976	  4.845	  5.090
207.980	  4.850	  5.090
207.984	  4.850	  5.105
207.988	  4.855	  5.085
207.992	  4.855	  5.085
207.996	  4.840	  5.080
208.000	  4.845	  5.075
208.004	  4.845	  5.070
208.008	  4.835	  5.055
208.012	  4.830	  5.045
208.016	  4.820	  5.055
208.020	  4.830	  5.045
208.024	  4.825	  5.030
208.028	  4.805	  5.025
208.032	  4.820	  5.035
208.036	  4.830	  5.030
208.040	  4.825	  5.010
208.044	  4.810	  5.005
208.048	  4.810	  5.020
208.052	  4.815	  5.015
208.056	  4.800	  5.005
208.060	  4.810	  4.985
208.064	  4.805	  4.980
208.068	  4.820	  4.995
208.072	  4.820	  4.975
208.076	  4.805	  4.970
208.080	  4.800	  4.970
208.084	  4.810	  4.990
208.088	  4.805	  4.970
208.092	  4.800	  4.950
208.096	  4.795	  4.960
208.100	  4.795	  4.965
208.104	  4.810	  4.965
208.108	  4.800	  4.935
208.112	  4.790	  4.945
208.116	  4.800	  4.950
208.120	  4.810	  4.965
208.124	  4.800	  4.945
208.128	  4.795	  4.935
208.132	  4.810	  4.935
208.136	  4.820	  4.940
208.140	  4.800	  4.925
208.144	  4.790	  4.925
208.148	  4.795	  4.930
208.152	  4.805	  4.935
208.156	  4.805	  4.920
208.160	  4.800	  4.920
208.164	  4.810	  4.925
208.168	  4.810	  4.920
208.172	  4.815	  4.920
208.176	  4.800	  4.900
208.180	  4.810	  4.915
208.184	  4.810	  4.935
208.188	  4.810	  4.920
208.192	  4.810	  4.895
208.196	  4.800	  4.905
208.200	  4.805	  4.915
208.204	  4.830	  4.910
208.208	  4.820	  4.905
208.212	  4.810	  4.905
208.216	  4.835	  4.925
208.220	  4.850	  4.955
208.224	  4.845	  5.040
208.228	  4.860	  5.400
208.232	  4.930	  5.825
208.236	  5.045	  5.730
208.240	  5.390	  5.420
208.244	  5.820	  5.315
208.248	  5.710	  5.265
208.252	  5.350	  5.225
208.256	  5.220	  5.165
208.260	  5.255	  5.060
208.264	  5.275	  4.890
208.268	  5.290	  4.595
208.272	  5.300	  4.230
208.276	  5.300	  3.870
208.280	  5.300	  3.485
208.284	  5.290	  3.125
208.288	  5.275	  2.825
208.292	  5.280	  2.585
208.296	  5.270	  2.455
208.300	  5.270	  2.420
208.304	  5.255	  2.195
208.308	  5.205	  2.090
208.312	  5.095	  2.045
208.316	  5.010	  2.030
208.320	  4.940	  2.010
208.324	  4.840	  1.995
208.328	  4.730	  1.990
208.332	  4.715	  2.000
208.336	  4.760	  2.005
208.340	  4.805	  2.005
208.344	  4.800	  2.020
208.348	  4.775	  2.070
208.352	  4.750	  2.170
208.356	  4.725	  2.305
208.360	  4.715	  2.515
208.364	  4.740	  2.775
208.368	  4.750	  3.125
208.372	  4.750	  3.480
208.376	  4.740	  3.785
208.380	  4.735	  4.115
208.384	  4.730	  4.450
208.388	  4.710	  4.725
208.392	  4.685	  4.955
208.396	  4.675	  5.190
208.400	  4.680	  5.265
208.404	  4.695	  5.575
208.408	  4.700	  5.660
208.412	  4.675	  5.740
208.416	  4.690	  5.805
208.420	  4.695	  5.845
208.424	  4.690	  5.870
208.428	  4.680	  5.915
208.432	  4.690	  5.965
208.436	  4.690	  6.000
208.440	  4.685	  6.015
208.444	  4.670	  6.045
208.448	  4.680	  6.090
208.452	  4.675	  6.125
208.456	  4.670	  6.135
208.460	  4.665	  6.175
208.464	  4.665	  6.220
208.468	  4.670	  6.265
208.472	  4.670	  6.290
208.476	  4.650	  6.325
208.480	  4.660	  6.370
208.484	  4.665	  6.415
208.488	  4.670	  6.455
208.492	  4.660	  6.490
208.496	  4.665	  6.535
208.500	  4.670	  6.555
208.504	  4.675	  6.620
208.508	  4.685	  6.640
208.512	  4.675	  6.680
208.516	  4.700	  6.730
208.520	  4.705	  6.765
208.524	  4.715	  6.795
208.528	  4.705	  6.820
208.532	  4.730	  6.855
208.536	  4.750	  6.870
208.540	  4.755	  6.880
208.544	  4.770	  6.875
208.548	  4.790	  6.890
208.552	  4.805	  6.890
208.556	  4.805	  6.865
208.560	  4.820	  6.825
208.564	  4.840	  6.810
208.568	  4.865	  6.770
208.572	  4.880	  6.725
208.576	  4.870	  6.640
208.580	  4.895	  6.570
208.584	  4.920	  6.510
208.588	  4.930	  6.415
208.592	  4.945	  6.330
208.596	  4.955	  6.240
208.600	  4.960	  6.215
208.604	  4.975	  6.055
208.608	  4.975	  5.950
208.612	  4.965	  5.885
208.616	  4.970	  5.815
208.620	  4.980	  5.735
208.624	  4.980	  5.645
208.628	  4.970	  5.590
208.632	  4.975	  5.545
208.636	  4.970	  5.480
208.640	  4.970	  5.415
208.644	  4.960	  5.370
208.648	  4.955	  5.340
208.652	  4.960	  5.310
208.656	  4.945	  5.265
208.660	  4.935	  5.230
208.664	  4.925	  5.220
208.668	  4.915	  5.205
208.672	  4.920	  5.175
208.676	  4.905	  5.150
208.680	  4.905	  5.155
208.684	  4.910	  5.145
208.688	  4.900	  5.145
208.692	  4.890	  5.125
208.696	  4.890	  5.125
208.700	  4.890	  5.120
208.704	  4.890	  5.140
208.708	  4.890	  5.120
208.712	  4.875	  5.115
208.716	  4.885	  5.135
208.720	  4.890	  5.125
208.724	  4.895	  5.110
208.728	  4.875	  5.120
208.732	  4.880	  5.125
208.736	  4.885	  5.120
208.740	  4.880	  5.115
208.744	  4.875	  5.110
208.748	  4.880	  5.110
208.752	  4.885	  5.125
208.756	  4.880	  5.120
208.760	  4.875	  5.105
208.764	  4.875	  5.115
208.768	  4.900	  5.120
208.772	  4.900	  5.110
208.776	  4.880	  5.095
208.780	  4.870	  5.110
208.784	  4.870	  5.105
208.788	  4.875	  5.100
208.792	  4.880	  5.080
208.796	  4.875	  5.085
208.800	  4.870	  5.090
208.804	  4.880	  5.080
208.808	  4.890	  5.060
208.812	  4.880	  5.055
208.816	  4.900	  5.065
208.820	  4.905	  5.060
208.824	  4.880	  5.040
208.828	  4.875	  5.040
208.832	  4.885	  5.055
208.836	  4.890	  5.040
208.840	  4.880	  5.010
208.844	  4.870	  5.000
208.848	  4.860	  5.010
208.852	  4.865	  5.015
208.856	  4.860	  4.990
208.860	  4.865	  4.980
208.864	  4.865	  4.990
208.868	  4.870	  4.990
208.872	  4.865	  4.985
208.876	  4.865	  4.950
208.880	  4.855	  4.965
208.884	  4.860	  4.975
208.888	  4.870	  4.965
208.892	  4.860	  4.940
208.896	  4.850	  4.955
208.900	  4.855	  4.960
208.904	  4.875	  4.955
208.908	  4.865	  4.935
208.912	  4.845	  4.940
208.916	  4.850	  4.935
208.920	  4.860	  4.940
208.924	  4.855	  4.930
208.928	  4.835	  4.925
208.932	  4.845	  4.930
208.936	  4.850	  4.930
208.940	  4.865	  4.915
208.944	  4.860	  4.905
208.948	  4.870	  4.920
208.952	  4.875	  4.920
208.956	  4.870	  4.915
208.960	  4.860	  4.905
208.964	  4.870	  4.905
208.968	  4.875	  4.920
208.972	  4.875	  4.905
208.976	  4.875	  4.885
208.980	  4.875	  4.895
208.984	  4.875	  4.910
208.988	  4.875	  4.900
208.992	  4.860	  4.890
208.996	  4.850	  4.885
209.000	  4.865	  4.885
209.004	  4.875	  4.895
209.008	  4.880	  4.880
209.012	  4.880	  4.880
209.016	  4.890	  4.890
209.020	  4.895	  4.880
209.024	  4.885	  4.880
209.028	  4.865	  4.885
209.032	  4.885	  4.890
209.036	  4.895	  4.890
209.040	  4.900	  4.885
209.044	  4.900	  4.885
209.048	  4.915	  4.925
209.052	  4.925	  4.975
209.056	  4.940	  5.200
209.060	  4.975	  5.705
209.064	  5.085	  5.805
209.068	  5.415	  5.460
209.072	  5.915	  5.295
209.076	  5.860	  5.225
209.080	  5.435	  5.185
209.084	  5.290	  5.120
209.088	  5.320	  5.020
209.092	  5.335	  4.820
209.096	  5.340	  4.545
209.100	  5.345	  4.450
209.104	  5.375	  3.845
209.108	  5.370	  3.450
209.112	  5.350	  3.115
209.116	  5.365	  2.850
209.120	  5.380	  2.645
209.124	  5.370	  2.470
209.128	  5.345	  2.360
209.132	  5.345	  2.235
209.136	  5.325	  2.135
209.140	  5.200	  2.060
209.144	  5.100	  2.035
209.148	  5.035	  2.020
209.152	  4.945	  2.005
209.156	  4.815	  1.990
209.160	  4.750	  1.990
209.164	  4.775	  2.005
209.168	  4.815	  2.015
209.172	  4.815	  2.020
209.176	  4.770	  2.040
209.180	  4.730	  2.120
209.184	  4.705	  2.235
209.188	  4.720	  2.390
209.192	  4.745	  2.565
209.196	  4.775	  2.840
209.200	  4.790	  2.940
209.204	  4.795	  3.500
209.208	  4.780	  3.815
209.212	  4.770	  4.150
209.216	  4.780	  4.460
209.220	  4.785	  4.745
209.224	  4.775	  4.975
209.228	  4.755	  5.195
209.232	  4.765	  5.400
209.236	  4.775	  5.585
209.240	  4.790	  5.700
209.244	  4.800	  5.775
209.248	  4.835	  5.840
209.252	  4.870	  5.880
209.256	  4.865	  5.910
209.260	  4.850	  5.945
209.264	  4.840	  5.985
209.268	  4.880	  6.020
209.272	  4.890	  6.040
209.276	  4.895	  6.055
209.280	  4.900	  6.085
209.284	  4.890	  6.110
209.288	  4.890	  6.130
209.292	  4.875	  6.135
209.296	  4.870	  6.190
209.300	  4.865	  6.210
209.304	  4.865	  6.280
209.308	  4.845	  6.310
209.312	  4.840	  6.340
209.316	  4.825	  6.395
209.320	  4.805	  6.415
209.324	  4.810	  6.445
209.328	  4.815	  6.485
209.332	  4.805	  6.535
209.336	  4.795	  6.570
209.340	  4.780	  6.595
209.344	  4.780	  6.635
209.348	  4.810	  6.675
209.352	  4.830	  6.710
209.356	  4.840	  6.730
209.360	  4.820	  6.755
209.364	  4.820	  6.785
209.368	  4.820	  6.805
209.372	  4.825	  6.810
209.376	  4.825	  6.815
209.380	  4.840	  6.825
209.384	  4.860	  6.835
209.388	  4.880	  6.805
209.392	  4.895	  6.775
209.396	  4.915	  6.750
209.400	  4.915	  6.740
209.404	  4.935	  6.665
209.408	  4.935	  6.590
209.412	  4.960	  6.545
209.416	  5.000	  6.475
209.420	  5.020	  6.400
209.424	  5.035	  6.305
209.428	  5.030	  6.220
209.432	  5.045	  6.145
209.436	  5.045	  6.055
209.440	  5.040	  5.955
209.444	  5.040	  5.860
209.448	  5.070	  5.795
209.452	  5.085	  5.725
209.456	  5.060	  5.650
209.460	  5.035	  5.570
209.464	  5.035	  5.520
209.468	  5.050	  5.465
209.472	  5.045	  5.405
209.476	  5.035	  5.345
209.480	  5.035	  5.330
209.484	  5.040	  5.300
209.488	  5.015	  5.250
209.492	  5.015	  5.215
209.496	  4.995	  5.195
209.500	  4.985	  5.195
209.504	  5.000	  5.165
209.508	  4.985	  5.135
209.512	  4.975	  5.125
209.516	  4.970	  5.140
209.520	  4.965	  5.130
209.524	  4.965	  5.110
209.528	  4.955	  5.110
209.532	  4.965	  5.115
209.536	  4.970	  5.115
209.540	  4.965	  5.105
209.544	  4.940	  5.100
209.548	  4.930	  5.110
209.552	  4.940	  5.110
209.556	  4.955	  5.105
209.560	  4.960	  5.100
209.564	  4.970	  5.105
209.568	  4.990	  5.115
209.572	  4.970	  5.110
209.576	  4.960	  5.105
209.580	  4.950	  5.105
209.584	  4.960	  5.120
209.588	  4.960	  5.110
209.592	  4.950	  5.095
209.596	  4.950	  5.095
209.600	  4.950	  5.105
209.604	  4.945	  5.105
209.608	  4.945	  5.085
209.612	  4.935	  5.085
209.616	  4.935	  5.090
209.620	  4.945	  5.085
209.624	  4.945	  5.075
209.628	  4.930	  5.080
209.632	  4.935	  5.080
209.636	  4.945	  5.075
209.640	  4.945	  5.050
209.644	  4.935	  5.050
209.648	  4.930	  5.050
209.652	  4.935	  5.050
209.656	  4.935	  5.035
209.660	  4.925	  5.025
209.664	  4.930	  5.030
209.668	  4.925	  5.030
209.672	  4.925	  5.010
209.676	  4.930	  4.985
209.680	  4.920	  5.000
209.684	  4.920	  5.005
209.688	  4.930	  4.980
209.692	  4.915	  4.970
209.696	  4.920	  4.970
209.700	  4.920	  4.975
209.704	  4.940	  4.965
209.708	  4.920	  4.950
209.712	  4.910	  4.950
209.716	  4.930	  4.955
209.720	  4.925	  4.955
209.724	  4.910	  4.935
209.728	  4.910	  4.940
209.732	  4.920	  4.945
209.736	  4.925	  4.945
209.740	  4.920	  4.935
209.744	  4.915	  4.920
209.748	  4.920	  4.925
209.752	  4.925	  4.935
209.756	  4.925	  4.925
209.760	  4.910	  4.915
209.764	  4.915	  4.920
209.768	  4.925	  4.935
209.772	  4.925	  4.910
209.776	  4.915	  4.905
209.780	  4.915	  4.920
209.784	  4.920	  4.930
209.788	  4.930	  4.915
209.792	  4.920	  4.905
209.796	  4.905	  4.915
209.800	  4.910	  4.920
209.804	  4.925	  4.915
209.808	  4.920	  4.900
209.812	  4.905	  4.910
209.816	  4.925	  4.915
209.820	  4.935	  4.905
209.824	  4.925	  4.885
209.828	  4.920	  4.905
209.832	  4.930	  4.900
209.836	  4.930	  4.915
209.840	  4.930	  4.895
209.844	  4.930	  4.890
209.848	  4.925	  4.910
209.852	  4.950	  4.915
209.856	  4.945	  4.930
209.860	  4.950	  4.965
209.864	  4.975	  5.110
209.868	  5.020	  5.620
209.872	  5.110	  5.960
209.876	  5.350	  5.640
209.880	  5.880	  5.375
209.884	  6.090	  5.315
209.888	  5.675	  5.255
209.892	  5.340	  5.200
209.896	  5.340	  5.145
209.900	  5.365	  5.115
209.904	  5.420	  4.760
209.908	  5.420	  4.415
209.912	  5.435	  4.050
209.916	  5.460	  3.690
209.920	  5.455	  3.315
209.924	  5.420	  3.000
209.928	  5.420	  2.765
209.932	  5.435	  2.605
209.936	  5.420	  2.460
209.940	  5.385	  2.305
209.944	  5.330	  2.155
209.948	  5.260	  2.105
209.952	  5.170	  2.070
209.956	  5.090	  2.025
209.960	  4.980	  2.005
209.964	  4.850	  2.020
209.968	  4.800	  2.005
209.972	  4.805	  2.005
209.976	  4.845	  2.005
209.980	  4.845	  2.035
209.984	  4.840	  2.095
209.988	  4.800	  2.170
209.992	  4.780	  2.300
209.996	  4.765	  2.510
210.000	  4.770	  2.575
210.004	  4.810	  3.050
210.008	  4.825	  3.370
210.012	  4.840	  3.720
210.016	  4.845	  4.045
210.020	  4.835	  4.365
210.024	  4.830	  4.660
210.028	  4.800	  4.935
210.032	  4.790	  5.160
210.036	  4.790	  5.360
210.040	  4.800	  5.525
210.044	  4.810	  5.645
210.048	  4.810	  5.745
210.052	  4.820	  5.800
210.056	  4.830	  5.840
210.060	  4.830	  5.890
210.064	  4.835	  5.940
210.068	  4.840	  5.980
210.072	  4.845	  6.000
210.076	  4.835	  6.035
210.080	  4.840	  6.095
210.084	  4.845	  6.115
210.088	  4.850	  6.145
210.092	  4.830	  6.170
210.096	  4.835	  6.205
210.100	  4.835	  6.215
210.104	  4.840	  6.285
210.108	  4.830	  6.315
210.112	  4.830	  6.370
210.116	  4.840	  6.425
210.120	  4.840	  6.475
210.124	  4.825	  6.505
210.128	  4.815	  6.550
210.132	  4.825	  6.610
210.136	  4.835	  6.660
210.140	  4.825	  6.685
210.144	  4.815	  6.730
210.148	  4.830	  6.800
210.152	  4.850	  6.840
210.156	  4.870	  6.855
210.160	  4.875	  6.885
210.164	  4.880	  6.920
210.168	  4.900	  6.935
210.172	  4.920	  6.930
210.176	  4.930	  6.920
210.180	  4.950	  6.920
210.184	  4.970	  6.920
210.188	  4.975	  6.890
210.192	  4.980	  6.855
210.196	  4.995	  6.825
210.200	  5.005	  6.815
210.204	  5.025	  6.740
210.208	  5.030	  6.680
210.212	  5.035	  6.640
210.216	  5.040	  6.575
210.220	  5.045	  6.485
210.224	  5.035	  6.390
210.228	  5.025	  6.305
210.232	  5.055	  6.225
210.236	  5.060	  6.145
210.240	  5.065	  6.035
210.244	  5.065	  5.955
210.248	  5.065	  5.880
210.252	  5.070	  5.805
210.256	  5.060	  5.720
210.260	  5.060	  5.640
210.264	  5.045	  5.575
210.268	  5.045	  5.530
210.272	  5.045	  5.455
210.276	  5.030	  5.400
210.280	  5.025	  5.360
210.284	  5.030	  5.325
210.288	  5.010	  5.285
210.292	  5.005	  5.235
210.296	  4.990	  5.220
210.300	  4.990	  5.215
210.304	  4.985	  5.185
210.308	  4.975	  5.150
210.312	  4.970	  5.150
210.316	  4.975	  5.145
210.320	  4.970	  5.135
210.324	  4.975	  5.120
210.328	  4.965	  5.120
210.332	  4.965	  5.135
210.336	  4.965	  5.130
210.340	  4.970	  5.105
210.344	  4.950	  5.110
210.348	  4.950	  5.110
210.352	  4.960	  5.120
210.356	  4.965	  5.115
210.360	  4.945	  5.110
210.364	  4.950	  5.125
210.368	  4.955	  5.135
210.372	  4.955	  5.120
210.376	  4.940	  5.110
210.380	  4.940	  5.130
210.384	  4.950	  5.125
210.388	  4.950	  5.125
210.392	  4.940	  5.110
210.396	  4.930	  5.120
210.400	  4.925	  5.125
210.404	  4.930	  5.125
210.408	  4.930	  5.110
210.412	  4.920	  5.115
210.416	  4.930	  5.115
210.420	  4.925	  5.120
210.424	  4.920	  5.105
210.428	  4.905	  5.095
210.432	  4.910	  5.095
210.436	  4.905	  5.090
210.440	  4.905	  5.075
210.444	  4.895	  5.065
210.448	  4.905	  5.065
210.452	  4.915	  5.055
210.456	  4.910	  5.060
210.460	  4.900	  5.040
210.464	  4.900	  5.055
210.468	  4.905	  5.045
210.472	  4.910	  5.025
210.476	  4.905	  5.000
210.480	  4.895	  5.005
210.484	  4.895	  5.025
210.488	  4.905	  5.005
210.492	  4.895	  4.990
210.496	  4.895	  4.995
210.500	  4.900	  5.000
210.504	  4.910	  4.995
210.508	  4.905	  4.980
210.512	  4.890	  4.970
210.516	  4.900	  4.980
210.520	  4.900	  4.980
210.524	  4.895	  4.960
210.528	  4.890	  4.955
210.532	  4.905	  4.960
210.536	  4.900	  4.960
210.540	  4.895	  4.940
210.544	  4.905	  4.930
210.548	  4.905	  4.960
210.552	  4.905	  4.950
210.556	  4.905	  4.940
210.560	  4.895	  4.930
210.564	  4.885	  4.940
210.568	  4.905	  4.940
210.572	  4.910	  4.930
210.576	  4.890	  4.915
210.580	  4.885	  4.930
210.584	  4.900	  4.935
210.588	  4.910	  4.925
210.592	  4.900	  4.905
210.596	  4.885	  4.925
210.600	  4.890	  4.920
210.604	  4.915	  4.920
210.608	  4.905	  4.910
210.612	  4.895	  4.900
210.616	  4.910	  4.910
210.620	  4.935	  4.905
210.624	  4.915	  4.900
210.628	  4.900	  4.895
210.632	  4.915	  4.905
210.636	  4.915	  4.910
210.640	  4.925	  4.900
210.644	  4.910	  4.895
210.648	  4.910	  4.910
210.652	  4.935	  4.910
210.656	  4.930	  4.905
210.660	  4.925	  4.895
210.664	  4.930	  4.920
210.668	  4.955	  4.940
210.672	  4.960	  4.995
210.676	  4.965	  5.300
210.680	  5.015	  5.830
210.684	  5.125	  5.845
210.688	  5.420	  5.475
210.692	  5.890	  5.280
210.696	  5.885	  5.205
210.700	  5.785	  5.180
210.704	  5.345	  5.010
210.708	  5.350	  4.820
210.712	  5.350	  4.610
210.716	  5.365	  4.370
210.720	  5.365	  4.065
210.724	  5.370	  3.765
210.728	  5.350	  3.545
210.732	  5.355	  3.365
210.736	  5.350	  3.170
210.740	  5.335	  2.870
210.744	  5.325	  2.605
210.748	  5.320	  2.440
210.752	  5.280	  2.310
210.756	  5.220	  2.190
210.760	  5.135	  2.095
210.764	  5.065	  2.065
210.768	  5.000	  2.040
210.772	  4.910	  2.020
210.776	  4.780	  1.990
210.780	  4.680	  2.010
210.784	  4.685	  2.010
210.788	  4.750	  2.020
210.792	  4.785	  2.015
210.796	  4.810	  2.080
210.800	  4.820	  2.105
210.804	  4.825	  2.310
210.808	  4.820	  2.490
210.812	  4.815	  2.755
210.816	  4.860	  3.060
210.820	  4.905	  3.380
210.824	  4.920	  3.725
210.828	  4.910	  4.080
210.832	  4.900	  4.375
210.836	  4.890	  4.655
210.840	  4.860	  4.895
210.844	  4.840	  5.110
210.848	  4.850	  5.345
210.852	  4.865	  5.515
210.856	  4.880	  5.625
210.860	  4.875	  5.695
210.864	  4.880	  5.760
210.868	  4.885	  5.815
210.872	  4.890	  5.850
210.876	  4.880	  5.890
210.880	  4.885	  5.950
210.884	  4.895	  5.995
210.888	  4.905	  6.005
210.892	  4.895	  6.040
210.896	  4.880	  6.080
210.900	  4.880	  6.095
210.904	  4.890	  6.145
210.908	  4.890	  6.160
210.912	  4.870	  6.200
210.916	  4.875	  6.240
210.920	  4.890	  6.275
210.924	  4.875	  6.295
210.928	  4.855	  6.340
210.932	  4.880	  6.385
210.936	  4.890	  6.420
210.940	  4.885	  6.450
210.944	  4.875	  6.495
210.948	  4.890	  6.550
210.952	  4.895	  6.580
210.956	  4.900	  6.605
210.960	  4.895	  6.640
210.964	  4.895	  6.685
210.968	  4.910	  6.725
210.972	  4.925	  6.755
210.976	  4.915	  6.770
210.980	  4.910	  6.805
210.984	  4.935	  6.840
210.988	  4.945	  6.860
210.992	  4.945	  6.850
210.996	  4.950	  6.865
211.000	  4.960	  6.870
211.004	  4.980	  6.865
211.008	  4.985	  6.830
211.012	  4.985	  6.810
211.016	  5.015	  6.780
211.020	  5.035	  6.730
211.024	  5.045	  6.655
211.028	  5.035	  6.600
211.032	  5.060	  6.540
211.036	  5.075	  6.480
211.040	  5.080	  6.385
211.044	  5.085	  6.305
211.048	  5.095	  6.235
211.052	  5.115	  6.150
211.056	  5.105	  6.050
211.060	  5.095	  5.955
211.064	  5.110	  5.900
211.068	  5.110	  5.825
211.072	  5.105	  5.735
211.076	  5.100	  5.655
211.080	  5.095	  5.595
211.084	  5.115	  5.555
211.088	  5.115	  5.485
211.092	  5.110	  5.415
211.096	  5.090	  5.365
211.100	  5.090	  5.350
211.104	  5.100	  5.280
211.108	  5.090	  5.225
211.112	  5.080	  5.200
211.116	  5.095	  5.180
211.120	  5.085	  5.155
211.124	  5.060	  5.115
211.128	  5.050	  5.095
211.132	  5.050	  5.105
211.136	  5.055	  5.110
211.140	  5.035	  5.110
211.144	  5.005	  5.100
211.148	  5.005	  5.100
211.152	  5.000	  5.110
211.156	  4.980	  5.090
211.160	  4.975	  5.080
211.164	  4.975	  5.095
211.168	  4.970	  5.100
211.172	  4.965	  5.095
211.176	  4.945	  5.080
211.180	  4.945	  5.095
211.184	  4.945	  5.095
211.188	  4.945	  5.095
211.192	  4.950	  5.080
211.196	  4.945	  5.100
211.200	  4.945	  5.110
211.204	  4.970	  5.105
211.208	  4.950	  5.090
211.212	  4.940	  5.090
211.216	  4.945	  5.100
211.220	  4.940	  5.100
211.224	  4.945	  5.090
211.228	  4.930	  5.075
211.232	  4.935	  5.085
211.236	  4.940	  5.080
211.240	  4.930	  5.070
211.244	  4.915	  5.060
211.248	  4.920	  5.060
211.252	  4.925	  5.060
211.256	  4.920	  5.055
211.260	  4.910	  5.025
211.264	  4.905	  5.040
211.268	  4.925	  5.035
211.272	  4.925	  5.020
211.276	  4.900	  5.005
211.280	  4.890	  5.005
211.284	  4.905	  5.010
211.288	  4.910	  5.000
211.292	  4.900	  4.980
211.296	  4.890	  4.985
211.300	  4.895	  4.990
211.304	  4.920	  4.990
211.308	  4.915	  4.975
211.312	  4.890	  4.965
211.316	  4.900	  4.980
211.320	  4.910	  4.965
211.324	  4.875	  4.955
211.328	  4.850	  4.955
211.332	  4.870	  4.960
211.336	  4.885	  4.960
211.340	  4.880	  4.950
211.344	  4.885	  4.945
211.348	  4.910	  4.960
211.352	  4.920	  4.965
211.356	  4.910	  4.945
211.360	  4.895	  4.940
211.364	  4.900	  4.940
211.368	  4.910	  4.955
211.372	  4.910	  4.955
211.376	  4.895	  4.930
211.380	  4.890	  4.950
211.384	  4.905	  4.950
211.388	  4.905	  4.950
211.392	  4.905	  4.925
211.396	  4.895	  4.935
211.400	  4.905	  4.940
211.404	  4.920	  4.935
211.408	  4.910	  4.925
211.412	  4.900	  4.925
211.416	  4.920	  4.935
211.420	  4.935	  4.940
211.424	  4.940	  4.930
211.428	  4.925	  4.920
211.432	  4.935	  4.930
211.436	  4.945	  4.925
211.440	  4.955	  4.910
211.444	  4.940	  4.910
211.448	  4.940	  4.920
211.452	  4.940	  4.925
211.456	  4.930	  4.915
211.460	  4.930	  4.900
211.464	  4.940	  4.910
211.468	  4.945	  4.925
211.472	  4.955	  4.920
211.476	  4.945	  4.915
211.480	  4.960	  4.935
211.484	  4.975	  4.995
211.488	  5.000	  5.225
211.492	  5.015	  5.730
211.496	  5.090	  5.885
211.500	  5.120	  5.820
211.504	  5.785	  5.345
211.508	  5.930	  5.285
211.512	  5.545	  5.225
211.516	  5.355	  5.180
211.520	  5.375	  5.060
211.524	  5.410	  4.860
211.528	  5.430	  4.590
211.532	  5.435	  4.250
211.536	  5.450	  3.880
211.540	  5.430	  3.470
211.544	  5.395	  3.090
211.548	  5.370	  2.845
211.552	  5.420	  2.665
211.556	  5.455	  2.500
211.560	  5.440	  2.400
211.564	  5.440	  2.305
211.568	  5.420	  2.195
211.572	  5.350	  2.110
211.576	  5.255	  2.065
211.580	  5.185	  2.045
211.584	  5.100	  2.035
211.588	  4.970	  2.020
211.592	  4.855	  2.000
211.596	  4.850	  2.015
211.600	  4.870	  2.020
211.604	  4.910	  2.040
211.608	  4.875	  2.055
211.612	  4.840	  2.135
211.616	  4.810	  2.250
211.620	  4.785	  2.415
211.624	  4.780	  2.610
211.628	  4.785	  2.870
211.632	  4.805	  3.200
211.636	  4.820	  3.540
211.640	  4.825	  3.835
211.644	  4.825	  4.165
211.648	  4.850	  4.490
211.652	  4.840	  4.765
211.656	  4.810	  4.990
211.660	  4.785	  5.185
211.664	  4.800	  5.385
211.668	  4.850	  5.550
211.672	  4.860	  5.670
211.676	  4.840	  5.735
211.680	  4.820	  5.810
211.684	  4.820	  5.855
211.688	  4.825	  5.905
211.692	  4.845	  5.930
211.696	  4.870	  5.985
211.700	  4.875	  6.000
211.704	  4.875	  6.070
211.708	  4.855	  6.095
211.712	  4.855	  6.130
211.716	  4.870	  6.185
211.720	  4.875	  6.210
211.724	  4.870	  6.240
211.728	  4.850	  6.275
211.732	  4.855	  6.330
211.736	  4.860	  6.370
211.740	  4.855	  6.410
211.744	  4.850	  6.455
211.748	  4.855	  6.510
211.752	  4.845	  6.560
211.756	  4.855	  6.595
211.760	  4.850	  6.635
211.764	  4.860	  6.685
211.768	  4.865	  6.735
211.772	  4.875	  6.760
211.776	  4.855	  6.800
211.780	  4.865	  6.850
211.784	  4.895	  6.885
211.788	  4.910	  6.915
211.792	  4.915	  6.935
211.796	  4.925	  6.960
211.800	  4.930	  6.970
211.804	  4.950	  6.980
211.808	  4.955	  6.970
211.812	  4.960	  6.965
211.816	  4.990	  6.950
211.820	  5.010	  6.910
211.824	  4.995	  6.855
211.828	  4.990	  6.810
211.832	  5.025	  6.755
211.836	  5.050	  6.695
211.840	  5.055	  6.610
211.844	  5.050	  6.525
211.848	  5.035	  6.465
211.852	  5.060	  6.385
211.856	  5.080	  6.280
211.860	  5.090	  6.185
211.864	  5.095	  6.110
211.868	  5.105	  6.035
211.872	  5.115	  5.940
211.876	  5.130	  5.855
211.880	  5.140	  5.800
211.884	  5.125	  5.740
211.888	  5.100	  5.675
211.892	  5.065	  5.605
211.896	  5.065	  5.565
211.900	  5.075	  5.550
211.904	  5.105	  5.475
211.908	  5.085	  5.410
211.912	  5.055	  5.365
211.916	  5.065	  5.325
211.920	  5.065	  5.295
211.924	  5.055	  5.250
211.928	  5.045	  5.210
211.932	  5.050	  5.195
211.936	  5.050	  5.160
211.940	  5.020	  5.120
211.944	  5.020	  5.105
211.948	  5.030	  5.095
211.952	  5.030	  5.090
211.956	  5.010	  5.090
211.960	  4.995	  5.095
211.964	  5.000	  5.115
211.968	  5.020	  5.105
211.972	  5.005	  5.090
211.976	  4.980	  5.080
211.980	  4.985	  5.085
211.984	  4.995	  5.095
211.988	  4.990	  5.085
211.992	  4.975	  5.070
211.996	  4.960	  5.080
212.000	  4.960	  5.090
212.004	  4.955	  5.090
212.008	  4.940	  5.085
212.012	  4.945	  5.085
212.016	  4.970	  5.100
212.020	  4.970	  5.110
212.024	  4.955	  5.090
212.028	  4.930	  5.080
212.032	  4.945	  5.090
212.036	  4.955	  5.095
212.040	  4.940	  5.090
212.044	  4.940	  5.080
212.048	  4.940	  5.085
212.052	  4.940	  5.095
212.056	  4.920	  5.075
212.060	  4.915	  5.065
212.064	  4.945	  5.065
212.068	  4.950	  5.080
212.072	  4.940	  5.060
212.076	  4.915	  5.050
212.080	  4.900	  5.045
212.084	  4.910	  5.050
212.088	  4.915	  5.050
212.092	  4.915	  5.025
212.096	  4.900	  5.025
212.100	  4.900	  5.030
212.104	  4.915	  5.025
212.108	  4.915	  5.000
212.112	  4.925	  4.995
212.116	  4.925	  5.010
212.120	  4.905	  5.005
212.124	  4.900	  5.000
212.128	  4.905	  4.985
212.132	  4.910	  5.000
212.136	  4.905	  4.995
212.140	  4.895	  4.975
212.144	  4.920	  4.975
212.148	  4.920	  4.985
212.152	  4.905	  4.975
212.156	  4.880	  4.960
212.160	  4.885	  4.960
212.164	  4.915	  4.975
212.168	  4.925	  4.970
212.172	  4.915	  4.960
212.176	  4.895	  4.955
212.180	  4.915	  4.955
212.184	  4.915	  4.970
212.188	  4.920	  4.960
212.192	  4.915	  4.945
212.196	  4.910	  4.950
212.200	  4.910	  4.955
212.204	  4.925	  4.950
212.208	  4.920	  4.935
212.212	  4.910	  4.940
212.216	  4.905	  4.940
212.220	  4.920	  4.940
212.224	  4.900	  4.935
212.228	  4.895	  4.940
212.232	  4.905	  4.940
212.236	  4.920	  4.940
212.240	  4.915	  4.930
212.244	  4.910	  4.915
212.248	  4.915	  4.930
212.252	  4.935	  4.935
212.256	  4.935	  4.930
212.260	  4.915	  4.925
212.264	  4.920	  4.940
212.268	  4.930	  4.940
212.272	  4.935	  4.930
212.276	  4.935	  4.925
212.280	  4.935	  4.940
212.284	  4.945	  4.945
212.288	  4.950	  4.965
212.292	  4.950	  5.010
212.296	  4.985	  5.305
212.300	  5.005	  5.440
212.304	  5.130	  5.915
212.308	  5.380	  5.545
212.312	  5.885	  5.380
212.316	  5.965	  5.340
212.320	  5.575	  5.275
212.324	  5.370	  5.195
212.328	  5.370	  5.095
212.332	  5.410	  4.925
212.336	  5.420	  4.675
212.340	  5.425	  4.315
212.344	  5.430	  3.955
212.348	  5.445	  3.595
212.352	  5.425	  3.265
212.356	  5.395	  2.985
212.360	  5.390	  2.765
212.364	  5.385	  2.620
212.368	  5.375	  2.510
212.372	  5.350	  2.375
212.376	  5.295	  2.245
212.380	  5.215	  2.155
212.384	  5.115	  2.125
212.388	  5.030	  2.090
212.392	  4.950	  2.065
212.396	  4.805	  2.050
212.400	  4.765	  2.045
212.404	  4.645	  2.045
212.408	  4.680	  2.045
212.412	  4.715	  2.050
212.416	  4.730	  2.085
212.420	  4.700	  2.145
212.424	  4.680	  2.235
212.428	  4.650	  2.395
212.432	  4.685	  2.580
212.436	  4.725	  2.795
212.440	  4.740	  3.055
212.444	  4.750	  3.365
212.448	  4.760	  3.705
212.452	  4.775	  4.010
212.456	  4.795	  4.305
212.460	  4.785	  4.595
212.464	  4.780	  4.875
212.468	  4.780	  5.090
212.472	  4.765	  5.285
212.476	  4.770	  5.455
212.480	  4.790	  5.615
212.484	  4.795	  5.710
212.488	  4.805	  5.760
212.492	  4.800	  5.805
212.496	  4.810	  5.850
212.500	  4.815	  5.875
212.504	  4.820	  5.950
212.508	  4.815	  5.975
212.512	  4.805	  6.005
212.516	  4.810	  6.055
212.520	  4.810	  6.080
212.524	  4.800	  6.100
212.528	  4.790	  6.125
212.532	  4.795	  6.175
212.536	  4.800	  6.210
212.540	  4.790	  6.240
212.544	  4.765	  6.275
212.548	  4.770	  6.320
212.552	  4.780	  6.365
212.556	  4.770	  6.400
212.560	  4.760	  6.435
212.564	  4.775	  6.495
212.568	  4.780	  6.535
212.572	  4.780	  6.550
212.576	  4.770	  6.585
212.580	  4.765	  6.630
212.584	  4.780	  6.690
212.588	  4.785	  6.725
212.592	  4.780	  6.760
212.596	  4.780	  6.810
212.600	  4.795	  6.830
212.604	  4.815	  6.880
212.608	  4.815	  6.885
212.612	  4.810	  6.915
212.616	  4.835	  6.940
212.620	  4.865	  6.935
212.624	  4.870	  6.920
212.628	  4.875	  6.910
212.632	  4.900	  6.895
212.636	  4.915	  6.860
212.640	  4.935	  6.800
212.644	  4.925	  6.745
212.648	  4.950	  6.700
212.652	  4.975	  6.630
212.656	  4.990	  6.540
212.660	  4.995	  6.455
212.664	  5.005	  6.380
212.668	  5.020	  6.305
212.672	  5.030	  6.220
212.676	  5.025	  6.115
212.680	  5.035	  6.050
212.684	  5.045	  5.975
212.688	  5.050	  5.895
212.692	  5.035	  5.800
212.696	  5.025	  5.755
212.700	  5.030	  5.735
212.704	  5.040	  5.655
212.708	  5.030	  5.590
212.712	  5.010	  5.540
212.716	  5.015	  5.515
212.720	  5.020	  5.470
212.724	  5.000	  5.430
212.728	  4.985	  5.395
212.732	  4.995	  5.390
212.736	  4.985	  5.335
212.740	  4.995	  5.295
212.744	  4.980	  5.260
212.748	  4.985	  5.255
212.752	  4.995	  5.235
212.756	  4.985	  5.200
212.760	  4.985	  5.175
212.764	  4.975	  5.160
212.768	  4.970	  5.160
212.772	  4.965	  5.130
212.776	  4.965	  5.115
212.780	  4.955	  5.115
212.784	  4.970	  5.120
212.788	  4.965	  5.130
212.792	  4.945	  5.125
212.796	  4.930	  5.135
212.800	  4.935	  5.135
212.804	  4.925	  5.130
212.808	  4.915	  5.125
212.812	  4.905	  5.135
212.816	  4.910	  5.135
212.820	  4.925	  5.150
212.824	  4.915	  5.135
212.828	  4.910	  5.135
212.832	  4.905	  5.145
212.836	  4.910	  5.145
212.840	  4.900	  5.130
212.844	  4.900	  5.130
212.848	  4.895	  5.145
212.852	  4.890	  5.150
212.856	  4.880	  5.150
212.860	  4.890	  5.130
212.864	  4.890	  5.140
212.868	  4.890	  5.145
212.872	  4.890	  5.120
212.876	  4.870	  5.120
212.880	  4.860	  5.120
212.884	  4.880	  5.120
212.888	  4.880	  5.120
212.892	  4.855	  5.090
212.896	  4.865	  5.100
212.900	  4.860	  5.105
212.904	  4.860	  5.105
212.908	  4.850	  5.085
212.912	  4.840	  5.080
212.916	  4.845	  5.090
212.920	  4.840	  5.090
212.924	  4.845	  5.065
212.928	  4.840	  5.065
212.932	  4.840	  5.070
212.936	  4.845	  5.065
212.940	  4.840	  5.050
212.944	  4.830	  5.035
212.948	  4.835	  5.045
212.952	  4.845	  5.045
212.956	  4.845	  5.030
212.960	  4.830	  5.025
212.964	  4.825	  5.025
212.968	  4.835	  5.040
212.972	  4.835	  5.030
212.976	  4.835	  5.005
212.980	  4.840	  5.020
212.984	  4.840	  5.020
212.988	  4.835	  5.015
212.992	  4.825	  4.995
212.996	  4.840	  5.020
213.000	  4.840	  5.025
213.004	  4.845	  5.015
213.008	  4.835	  4.990
213.012	  4.825	  5.000
213.016	  4.835	  5.015
213.020	  4.835	  5.015
213.024	  4.835	  4.995
213.028	  4.820	  4.990
213.032	  4.825	  5.005
213.036	  4.835	  5.005
213.040	  4.830	  4.990
213.044	  4.840	  4.975
213.048	  4.845	  5.000
213.052	  4.845	  5.000
213.056	  4.845	  4.985
213.060	  4.830	  4.985
213.064	  4.830	  4.985
213.068	  4.840	  4.995
213.072	  4.830	  4.990
213.076	  4.830	  4.980
213.080	  4.830	  4.985
213.084	  4.845	  4.995
213.088	  4.855	  4.985
213.092	  4.830	  4.960
213.096	  4.830	  4.975
213.100	  4.830	  4.970
213.104	  4.850	  4.980
213.108	  4.845	  4.965
213.112	  4.830	  4.970
213.116	  4.855	  4.985
213.120	  4.870	  4.985
213.124	  4.860	  4.970
213.128	  4.850	  4.965
213.132	  4.865	  4.985
213.136	  4.865	  4.995
213.140	  4.870	  5.000
213.144	  4.875	  5.045
213.148	  4.895	  5.300
213.152	  4.955	  5.795
213.156	  5.055	  5.955
213.160	  5.310	  5.610
213.164	  5.815	  5.435
213.168	  5.965	  5.395
213.172	  5.600	  5.330
213.176	  5.320	  5.280
213.180	  5.295	  5.240
213.184	  5.310	  5.135
213.188	  5.320	  4.965
213.192	  5.325	  4.720
213.196	  5.330	  4.430
213.200	  5.345	  4.335
213.204	  5.365	  3.800
213.208	  5.365	  3.470
213.212	  5.340	  3.175
213.216	  5.335	  2.970
213.220	  5.345	  2.790
213.224	  5.350	  2.635
213.228	  5.330	  2.535
213.232	  5.330	  2.445
213.236	  5.330	  2.320
213.240	  5.285	  2.225
213.244	  5.190	  2.160
213.248	  5.125	  2.150
213.252	  5.070	  2.120
213.256	  4.995	  2.095
213.260	  4.870	  2.080
213.264	  4.775	  2.080
213.268	  4.770	  2.085
213.272	  4.805	  2.090
213.276	  4.840	  2.095
213.280	  4.840	  2.130
213.284	  4.820	  2.195
213.288	  4.780	  2.260
213.292	  4.750	  2.375
213.296	  4.735	  2.555
213.300	  4.735	  2.610
213.304	  4.755	  2.975
213.308	  4.765	  3.255
213.312	  4.755	  3.575
213.316	  4.760	  3.880
213.320	  4.770	  4.175
213.324	  4.765	  4.465
213.328	  4.755	  4.745
213.332	  4.755	  4.990
213.336	  4.740	  5.200
213.340	  4.715	  5.370
213.344	  4.705	  5.540
213.348	  4.735	  5.700
213.352	  4.740	  5.795
213.356	  4.740	  5.850
213.360	  4.730	  5.910
213.364	  4.750	  5.965
213.368	  4.760	  6.010
213.372	  4.750	  6.040
213.376	  4.750	  6.065
213.380	  4.740	  6.110
213.384	  4.755	  6.155
213.388	  4.760	  6.170
213.392	  4.760	  6.200
213.396	  4.750	  6.240
213.400	  4.755	  6.260
213.404	  4.755	  6.320
213.408	  4.730	  6.340
213.412	  4.730	  6.380
213.416	  4.750	  6.420
213.420	  4.755	  6.460
213.424	  4.745	  6.480
213.428	  4.735	  6.520
213.432	  4.740	  6.585
213.436	  4.745	  6.625
213.440	  4.740	  6.660
213.444	  4.740	  6.695
213.448	  4.735	  6.745
213.452	  4.750	  6.800
213.456	  4.755	  6.815
213.460	  4.745	  6.860
213.464	  4.750	  6.910
213.468	  4.765	  6.950
213.472	  4.765	  6.970
213.476	  4.770	  7.000
213.480	  4.770	  7.050
213.484	  4.800	  7.050
213.488	  4.795	  7.070
213.492	  4.795	  7.060
213.496	  4.820	  7.070
213.500	  4.830	  7.075
213.504	  4.850	  7.055
213.508	  4.850	  7.030
213.512	  4.870	  7.000
213.516	  4.875	  6.985
213.520	  4.900	  6.945
213.524	  4.905	  6.885
213.528	  4.920	  6.835
213.532	  4.935	  6.780
213.536	  4.945	  6.720
213.540	  4.950	  6.630
213.544	  4.960	  6.550
213.548	  4.965	  6.480
213.552	  4.985	  6.400
213.556	  5.005	  6.300
213.560	  5.000	  6.215
213.564	  5.000	  6.145
213.568	  5.015	  6.070
213.572	  5.005	  5.980
213.576	  5.015	  5.895
213.580	  5.010	  5.830
213.584	  5.025	  5.765
213.588	  5.020	  5.695
213.592	  5.005	  5.635
213.596	  5.000	  5.600
213.600	  4.995	  5.590
213.604	  5.005	  5.505
213.608	  4.990	  5.455
213.612	  4.965	  5.415
213.616	  4.980	  5.405
213.620	  4.985	  5.370
213.624	  4.960	  5.325
213.628	  4.950	  5.305
213.632	  4.960	  5.295
213.636	  4.965	  5.280
213.640	  4.955	  5.250
213.644	  4.945	  5.235
213.648	  4.950	  5.225
213.652	  4.945	  5.225
213.656	  4.935	  5.205
213.660	  4.925	  5.195
213.664	  4.935	  5.210
213.668	  4.935	  5.200
213.672	  4.935	  5.195
213.676	  4.925	  5.175
213.680	  4.925	  5.185
213.684	  4.940	  5.195
213.688	  4.940	  5.180
213.692	  4.930	  5.170
213.696	  4.920	  5.175
213.700	  4.925	  5.170
213.704	  4.915	  5.175
213.708	  4.920	  5.165
213.712	  4.915	  5.170
213.716	  4.925	  5.170
213.720	  4.930	  5.180
213.724	  4.925	  5.165
213.728	  4.910	  5.160
213.732	  4.920	  5.175
213.736	  4.920	  5.175
213.740	  4.910	  5.165
213.744	  4.905	  5.165
213.748	  4.905	  5.175
213.752	  4.905	  5.180
213.756	  4.895	  5.185
213.760	  4.880	  5.175
213.764	  4.870	  5.190
213.768	  4.870	  5.200
213.772	  4.865	  5.200
213.776	  4.860	  5.190
213.780	  4.855	  5.195
213.784	  4.865	  5.190
213.788	  4.875	  5.185
213.792	  4.870	  5.165
213.796	  4.885	  5.170
213.800	  4.890	  5.175
213.804	  4.915	  5.140
213.808	  4.895	  5.120
213.812	  4.885	  5.105
213.816	  4.905	  5.095
213.820	  4.910	  5.075
213.824	  4.910	  5.060
213.828	  4.895	  5.035
213.832	  4.895	  5.040
213.836	  4.900	  5.035
213.840	  4.905	  5.010
213.844	  4.895	  5.010
213.848	  4.900	  5.025
213.852	  4.895	  5.040
213.856	  4.870	  5.015
213.860	  4.840	  5.010
213.864	  4.830	  5.010
213.868	  4.840	  5.020
213.872	  4.830	  5.020
213.876	  4.830	  5.000
213.880	  4.825	  5.000
213.884	  4.830	  5.010
213.888	  4.830	  5.005
213.892	  4.820	  4.990
213.896	  4.830	  5.000
213.900	  4.835	  5.010
213.904	  4.840	  5.000
213.908	  4.840	  4.985
213.912	  4.820	  4.975
213.916	  4.835	  4.995
213.920	  4.835	  4.990
213.924	  4.825	  4.970
213.928	  4.810	  4.975
213.932	  4.815	  4.975
213.936	  4.825	  4.980
213.940	  4.820	  4.970
213.944	  4.820	  4.960
213.948	  4.835	  4.975
213.952	  4.855	  4.965
213.956	  4.845	  4.965
213.960	  4.840	  4.955
213.964	  4.840	  4.970
213.968	  4.840	  4.965
213.972	  4.830	  4.955
213.976	  4.830	  4.940
213.980	  4.830	  4.965
213.984	  4.835	  4.970
213.988	  4.840	  4.965
213.992	  4.855	  4.945
213.996	  4.860	  4.955
214.000	  4.865	  4.965
214.004	  4.860	  4.965
214.008	  4.850	  4.960
214.012	  4.845	  4.960
214.016	  4.875	  4.985
214.020	  4.900	  5.005
214.024	  4.905	  5.065
214.028	  4.910	  5.395
214.032	  4.980	  5.885
214.036	  5.115	  5.825
214.040	  5.485	  5.500
214.044	  5.940	  5.380
214.048	  5.845	  5.345
214.052	  5.460	  5.295
214.056	  5.280	  5.235
214.060	  5.295	  5.155
214.064	  5.320	  5.020
214.068	  5.345	  4.810
214.072	  5.365	  4.505
214.076	  5.350	  4.155
214.080	  5.370	  3.815
214.084	  5.385	  3.445
214.088	  5.365	  3.080
214.092	  5.350	  2.820
214.096	  5.360	  2.655
214.100	  5.370	  2.615
214.104	  5.375	  2.450
214.108	  5.360	  2.335
214.112	  5.345	  2.230
214.116	  5.285	  2.170
214.120	  5.190	  2.135
214.124	  5.110	  2.090
214.128	  5.035	  2.070
214.132	  4.930	  2.070
214.136	  4.815	  2.065
214.140	  4.750	  2.040
214.144	  4.745	  2.040
214.148	  4.780	  2.075
214.152	  4.795	  2.105
214.156	  4.785	  2.160
214.160	  4.770	  2.240
214.164	  4.735	  2.390
214.168	  4.720	  2.565
214.172	  4.715	  2.750
214.176	  4.720	  2.980
214.180	  4.725	  3.280
214.184	  4.740	  3.600
214.188	  4.740	  3.905
214.192	  4.725	  4.175
214.196	  4.740	  4.450
214.200	  4.740	  4.545
214.204	  4.740	  4.940
214.208	  4.725	  5.135
214.212	  4.730	  5.325
214.216	  4.745	  5.515
214.220	  4.765	  5.665
214.224	  4.755	  5.755
214.228	  4.725	  5.825
214.232	  4.730	  5.900
214.236	  4.740	  5.945
214.240	  4.740	  5.985
214.244	  4.740	  6.035
214.248	  4.755	  6.080
214.252	  4.770	  6.125
214.256	  4.775	  6.155
214.260	  4.765	  6.195
214.264	  4.770	  6.250
214.268	  4.780	  6.300
214.272	  4.790	  6.330
214.276	  4.760	  6.370
214.280	  4.750	  6.425
214.284	  4.750	  6.480
214.288	  4.760	  6.515
214.292	  4.760	  6.560
214.296	  4.755	  6.615
214.300	  4.750	  6.635
214.304	  4.750	  6.715
214.308	  4.740	  6.755
214.312	  4.755	  6.805
214.316	  4.780	  6.850
214.320	  4.785	  6.890
214.324	  4.780	  6.920
214.328	  4.780	  6.960
214.332	  4.810	  7.000
214.336	  4.825	  7.035
214.340	  4.835	  7.050
214.344	  4.840	  7.060
214.348	  4.850	  7.080
214.352	  4.865	  7.090
214.356	  4.860	  7.080
214.360	  4.840	  7.055
214.364	  4.880	  7.045
214.368	  4.910	  7.015
214.372	  4.930	  6.965
214.376	  4.920	  6.915
214.380	  4.910	  6.865
214.384	  4.930	  6.810
214.388	  4.960	  6.735
214.392	  4.980	  6.630
214.396	  4.980	  6.575
214.400	  4.985	  6.555
214.404	  4.995	  6.420
214.408	  4.980	  6.330
214.412	  4.990	  6.255
214.416	  5.000	  6.190
214.420	  5.025	  6.100
214.424	  5.015	  6.000
214.428	  4.990	  5.925
214.432	  4.995	  5.870
214.436	  4.995	  5.800
214.440	  4.980	  5.715
214.444	  4.970	  5.660
214.448	  4.975	  5.615
214.452	  4.970	  5.560
214.456	  4.955	  5.500
214.460	  4.950	  5.465
214.464	  4.970	  5.430
214.468	  4.980	  5.400
214.472	  4.965	  5.355
214.476	  4.945	  5.310
214.480	  4.940	  5.290
214.484	  4.955	  5.285
214.488	  4.940	  5.245
214.492	  4.925	  5.215
214.496	  4.915	  5.205
214.500	  4.925	  5.210
214.504	  4.935	  5.180
214.508	  4.920	  5.150
214.512	  4.920	  5.150
214.516	  4.940	  5.145
214.520	  4.945	  5.145
214.524	  4.935	  5.125
214.528	  4.910	  5.120
214.532	  4.930	  5.130
214.536	  4.925	  5.125
214.540	  4.905	  5.105
214.544	  4.890	  5.090
214.548	  4.910	  5.115
214.552	  4.925	  5.100
214.556	  4.900	  5.080
214.560	  4.890	  5.095
214.564	  4.905	  5.090
214.568	  4.920	  5.100
214.572	  4.890	  5.105
214.576	  4.875	  5.090
214.580	  4.905	  5.100
214.584	  4.935	  5.100
214.588	  4.935	  5.095
214.592	  4.900	  5.085
214.596	  4.885	  5.095
214.600	  4.890	  5.100
214.604	  4.910	  5.105
214.608	  4.915	  5.090
214.612	  4.910	  5.085
214.616	  4.925	  5.100
214.620	  4.925	  5.090
214.624	  4.905	  5.080
214.628	  4.880	  5.085
214.632	  4.875	  5.085
214.636	  4.870	  5.080
214.640	  4.875	  5.065
214.644	  4.855	  5.060
214.648	  4.855	  5.070
214.652	  4.870	  5.070
214.656	  4.890	  5.060
214.660	  4.890	  5.040
214.664	  4.880	  5.045
214.668	  4.880	  5.040
214.672	  4.880	  5.045
214.676	  4.840	  5.020
214.680	  4.820	  5.025
214.684	  4.830	  5.035
214.688	  4.865	  5.025
214.692	  4.870	  5.010
214.696	  4.865	  5.000
214.700	  4.870	  5.010
214.704	  4.870	  5.010
214.708	  4.860	  4.995
214.712	  4.850	  4.985
214.716	  4.865	  4.995
214.720	  4.870	  4.995
214.724	  4.880	  4.985
214.728	  4.885	  4.975
214.732	  4.895	  4.980
214.736	  4.885	  4.995
214.740	  4.880	  4.975
214.744	  4.880	  4.980
214.748	  4.900	  4.990
214.752	  4.895	  5.005
214.756	  4.870	  4.995
214.760	  4.855	  5.000
214.764	  4.865	  5.020
214.768	  4.890	  5.015
214.772	  4.895	  5.020
214.776	  4.875	  5.000
214.780	  4.865	  5.010
214.784	  4.890	  5.005
214.788	  4.910	  4.980
214.792	  4.910	  4.955
214.796	  4.890	  4.955
214.800	  4.900	  4.960
214.804	  4.910	  4.935
214.808	  4.910	  4.920
214.812	  4.910	  4.900
214.816	  4.920	  4.905
214.820	  4.920	  4.900
214.824	  4.915	  4.875
214.828	  4.900	  4.885
214.832	  4.910	  4.905
214.836	  4.920	  4.915
214.840	  4.915	  4.910
214.844	  4.890	  4.905
214.848	  4.890	  4.915
214.852	  4.885	  4.925
214.856	  4.905	  4.925
214.860	  4.905	  4.960
214.864	  4.905	  5.070
214.868	  4.940	  5.500
214.872	  4.985	  5.955
214.876	  5.105	  5.750
214.880	  5.485	  5.445
214.884	  5.895	  5.365
214.888	  5.710	  5.315
214.892	  5.340	  5.255
214.896	  5.275	  5.205
214.900	  5.290	  5.185
214.904	  5.365	  4.940
214.908	  5.380	  4.665
214.912	  5.415	  4.375
214.916	  5.455	  4.085
214.920	  5.475	  3.785
214.924	  5.460	  3.485
214.928	  5.450	  3.275
214.932	  5.490	  3.125
214.936	  5.520	  2.995
214.940	  5.520	  2.835
214.944	  5.515	  2.670
214.948	  5.495	  2.515
214.952	  5.445	  2.375
214.956	  5.345	  2.290
214.960	  5.265	  2.230
214.964	  5.185	  2.180
214.968	  5.055	  2.140
214.972	  4.895	  2.100
214.976	  4.800	  2.075
214.980	  4.820	  2.070
214.984	  4.855	  2.075
214.988	  4.830	  2.105
214.992	  4.770	  2.165
214.996	  4.730	  2.310
215.000	  4.720	  2.355
215.004	  4.685	  2.665
215.008	  4.695	  2.860
215.012	  4.715	  3.160
215.016	  4.735	  3.495
215.020	  4.740	  3.815
215.024	  4.730	  4.115
215.028	  4.720	  4.410
215.032	  4.710	  4.715
215.036	  4.710	  4.965
215.040	  4.675	  5.135
215.044	  4.655	  5.335
215.048	  4.680	  5.510
215.052	  4.700	  5.635
215.056	  4.695	  5.705
215.060	  4.685	  5.765
215.064	  4.700	  5.830
215.068	  4.715	  5.885
215.072	  4.720	  5.930
215.076	  4.700	  5.960
215.080	  4.690	  6.020
215.084	  4.720	  6.065
215.088	  4.715	  6.090
215.092	  4.705	  6.130
215.096	  4.705	  6.175
215.100	  4.710	  6.195
215.104	  4.710	  6.270
215.108	  4.695	  6.300
215.112	  4.705	  6.360
215.116	  4.705	  6.410
215.120	  4.705	  6.460
215.124	  4.690	  6.490
215.128	  4.685	  6.550
215.132	  4.705	  6.610
215.136	  4.705	  6.650
215.140	  4.685	  6.680
215.144	  4.690	  6.725
215.148	  4.695	  6.785
215.152	  4.710	  6.825
215.156	  4.705	  6.860
215.160	  4.705	  6.885
215.164	  4.720	  6.935
215.168	  4.735	  6.960
215.172	  4.735	  6.965
215.176	  4.740	  6.975
215.180	  4.750	  6.980
215.184	  4.775	  6.985
215.188	  4.790	  6.950
215.192	  4.800	  6.920
215.196	  4.810	  6.890
215.200	  4.820	  6.880
215.204	  4.850	  6.785
215.208	  4.845	  6.705
215.212	  4.860	  6.655
215.216	  4.880	  6.595
215.220	  4.890	  6.510
215.224	  4.890	  6.425
215.228	  4.890	  6.345
215.232	  4.900	  6.275
215.236	  4.905	  6.190
215.240	  4.905	  6.090
215.244	  4.910	  6.005
215.248	  4.930	  5.935
215.252	  4.920	  5.860
215.256	  4.910	  5.770
215.260	  4.905	  5.705
215.264	  4.905	  5.645
215.268	  4.905	  5.590
215.272	  4.890	  5.535
215.276	  4.885	  5.475
215.280	  4.885	  5.450
215.284	  4.885	  5.410
215.288	  4.880	  5.360
215.292	  4.865	  5.320
215.296	  4.865	  5.300
215.300	  4.865	  5.295
215.304	  4.860	  5.250
215.308	  4.850	  5.210
215.312	  4.850	  5.200
215.316	  4.865	  5.205
215.320	  4.855	  5.180
215.324	  4.850	  5.155
215.328	  4.845	  5.145
215.332	  4.850	  5.150
215.336	  4.850	  5.150
215.340	  4.845	  5.135
215.344	  4.835	  5.125
215.348	  4.835	  5.125
215.352	  4.845	  5.125
215.356	  4.840	  5.105
215.360	  4.830	  5.100
215.364	  4.840	  5.120
215.368	  4.850	  5.115
215.372	  4.850	  5.110
215.376	  4.835	  5.090
215.380	  4.830	  5.105
215.384	  4.845	  5.120
215.388	  4.845	  5.120
215.392	  4.840	  5.100
215.396	  4.840	  5.115
215.400	  4.845	  5.120
215.404	  4.855	  5.120
215.408	  4.840	  5.115
215.412	  4.830	  5.115
215.416	  4.855	  5.125
215.420	  4.860	  5.125
215.424	  4.840	  5.110
215.428	  4.835	  5.115
215.432	  4.840	  5.120
215.436	  4.840	  5.125
215.440	  4.840	  5.105
215.444	  4.820	  5.105
215.448	  4.830	  5.105
215.452	  4.835	  5.110
215.456	  4.825	  5.105
215.460	  4.805	  5.085
215.464	  4.815	  5.090
215.468	  4.830	  5.090
215.472	  4.820	  5.080
215.476	  4.805	  5.065
215.480	  4.805	  5.070
215.484	  4.820	  5.085
215.488	  4.815	  5.060
215.492	  4.790	  5.035
215.496	  4.800	  5.045
215.500	  4.805	  5.040
215.504	  4.805	  5.035
215.508	  4.800	  5.015
215.512	  4.780	  5.010
215.516	  4.795	  5.015
215.520	  4.800	  5.020
215.524	  4.790	  5.000
215.528	  4.785	  5.005
215.532	  4.800	  5.005
215.536	  4.795	  5.005
215.540	  4.790	  5.000
215.544	  4.780	  4.990
215.548	  4.785	  4.990
215.552	  4.790	  4.995
215.556	  4.795	  4.975
215.560	  4.775	  4.970
215.564	  4.785	  4.985
215.568	  4.795	  4.975
215.572	  4.780	  4.970
215.576	  4.770	  4.965
215.580	  4.770	  4.975
215.584	  4.785	  4.980
215.588	  4.785	  4.970
215.592	  4.770	  4.945
215.596	  4.770	  4.950
215.600	  4.775	  4.960
215.604	  4.775	  4.955
215.608	  4.775	  4.955
215.612	  4.770	  4.955
215.616	  4.780	  4.950
215.620	  4.790	  4.955
215.624	  4.780	  4.940
215.628	  4.775	  4.945
215.632	  4.780	  4.960
215.636	  4.785	  4.960
215.640	  4.780	  4.940
215.644	  4.775	  4.930
215.648	  4.780	  4.950
215.652	  4.790	  4.955
215.656	  4.785	  4.940
215.660	  4.795	  4.940
215.664	  4.795	  4.975
215.668	  4.810	  4.990
215.672	  4.805	  5.020
215.676	  4.815	  5.225
215.680	  4.845	  5.705
215.684	  4.900	  6.010
215.688	  5.030	  5.745
215.692	  5.385	  5.460
215.696	  5.790	  5.410
215.700	  5.865	  5.400
215.704	  5.365	  5.305
215.708	  5.240	  5.240
215.712	  5.250	  5.135
215.716	  5.275	  4.960
215.720	  5.280	  4.680
215.724	  5.290	  4.325
215.728	  5.295	  3.970
215.732	  5.315	  3.625
215.736	  5.320	  3.280
215.740	  5.315	  2.980
215.744	  5.310	  2.745
215.748	  5.320	  2.575
215.752	  5.310	  2.455
215.756	  5.290	  2.310
215.760	  5.255	  2.185
215.764	  5.215	  2.130
215.768	  5.115	  2.085
215.772	  5.015	  2.050
215.776	  4.925	  2.030
215.780	  4.800	  2.025
215.784	  4.705	  2.025
215.788	  4.660	  2.030
215.792	  4.680	  2.020
215.796	  4.730	  2.040
215.800	  4.750	  2.055
215.804	  4.760	  2.140
215.808	  4.730	  2.245
215.812	  4.700	  2.430
215.816	  4.695	  2.640
215.820	  4.695	  2.885
215.824	  4.710	  3.155
215.828	  4.700	  3.470
215.832	  4.700	  3.795
215.836	  4.695	  4.105
215.840	  4.680	  4.400
215.844	  4.660	  4.680
215.848	  4.640	  4.935
215.852	  4.630	  5.140
215.856	  4.600	  5.335
215.860	  4.610	  5.505
215.864	  4.620	  5.650
215.868	  4.625	  5.720
215.872	  4.615	  5.780
215.876	  4.610	  5.820
215.880	  4.605	  5.880
215.884	  4.625	  5.925
215.888	  4.625	  5.965
215.892	  4.610	  5.995
215.896	  4.620	  6.040
215.900	  4.620	  6.060
215.904	  4.625	  6.130
215.908	  4.615	  6.140
215.912	  4.615	  6.200
215.916	  4.620	  6.250
215.920	  4.625	  6.285
215.924	  4.620	  6.315
215.928	  4.610	  6.365
215.932	  4.625	  6.415
215.936	  4.630	  6.465
215.940	  4.615	  6.490
215.944	  4.610	  6.535
215.948	  4.625	  6.600
215.952	  4.640	  6.650
215.956	  4.630	  6.670
215.960	  4.625	  6.715
215.964	  4.640	  6.775
215.968	  4.645	  6.820
215.972	  4.655	  6.845
215.976	  4.655	  6.870
215.980	  4.660	  6.910
215.984	  4.675	  6.945
215.988	  4.685	  6.960
215.992	  4.695	  6.955
215.996	  4.710	  6.965
216.000	  4.715	  6.970
216.004	  4.750	  6.955
216.008	  4.750	  6.920
216.012	  4.770	  6.900
216.016	  4.785	  6.865
216.020	  4.795	  6.810
216.024	  4.815	  6.735
216.028	  4.815	  6.670
216.032	  4.830	  6.610
216.036	  4.850	  6.535
216.040	  4.850	  6.430
216.044	  4.860	  6.335
216.048	  4.875	  6.250
216.052	  4.885	  6.170
216.056	  4.885	  6.075
216.060	  4.885	  5.980
216.064	  4.890	  5.910
216.068	  4.890	  5.830
216.072	  4.885	  5.750
216.076	  4.875	  5.670
216.080	  4.865	  5.605
216.084	  4.880	  5.550
216.088	  4.880	  5.485
216.092	  4.875	  5.420
216.096	  4.850	  5.395
216.100	  4.855	  5.385
216.104	  4.860	  5.325
216.108	  4.855	  5.275
216.112	  4.835	  5.265
216.116	  4.845	  5.250
216.120	  4.835	  5.230
216.124	  4.815	  5.205
216.128	  4.805	  5.190
216.132	  4.835	  5.195
216.136	  4.840	  5.200
216.140	  4.820	  5.180
216.144	  4.810	  5.165
216.148	  4.815	  5.175
216.152	  4.820	  5.175
216.156	  4.820	  5.170
216.160	  4.810	  5.160
216.164	  4.825	  5.170
216.168	  4.840	  5.170
216.172	  4.820	  5.160
216.176	  4.805	  5.150
216.180	  4.805	  5.160
216.184	  4.825	  5.170
216.188	  4.825	  5.155
216.192	  4.805	  5.160
216.196	  4.805	  5.155
216.200	  4.810	  5.160
216.204	  4.825	  5.165
216.208	  4.810	  5.140
216.212	  4.795	  5.145
216.216	  4.810	  5.160
216.220	  4.800	  5.155
216.224	  4.790	  5.140
216.228	  4.780	  5.150
216.232	  4.790	  5.145
216.236	  4.795	  5.140
216.240	  4.785	  5.115
216.244	  4.775	  5.120
216.248	  4.780	  5.125
216.252	  4.785	  5.130
216.256	  4.785	  5.110
216.260	  4.790	  5.090
216.264	  4.790	  5.100
216.268	  4.795	  5.090
216.272	  4.785	  5.080
216.276	  4.765	  5.060
216.280	  4.765	  5.065
216.284	  4.775	  5.075
216.288	  4.780	  5.060
216.292	  4.775	  5.035
216.296	  4.780	  5.045
216.300	  4.790	  5.050
216.304	  4.785	  5.045
216.308	  4.755	  5.030
216.312	  4.740	  5.025
216.316	  4.755	  5.030
216.320	  4.760	  5.030
216.324	  4.750	  5.015
216.328	  4.735	  5.015
216.332	  4.750	  5.010
216.336	  4.755	  5.020
216.340	  4.740	  4.990
216.344	  4.730	  4.995
216.348	  4.750	  5.000
216.352	  4.765	  5.015
216.356	  4.760	  4.990
216.360	  4.765	  4.975
216.364	  4.775	  4.995
216.368	  4.780	  4.990
216.372	  4.770	  4.980
216.376	  4.755	  4.965
216.380	  4.765	  4.985
216.384	  4.780	  4.985
216.388	  4.760	  4.975
216.392	  4.755	  4.960
216.396	  4.745	  4.975
216.400	  4.750	  4.975
216.404	  4.780	  4.970
216.408	  4.780	  4.955
216.412	  4.765	  4.955
216.416	  4.760	  4.965
216.420	  4.770	  4.970
216.424	  4.755	  4.950
216.428	  4.740	  4.960
216.432	  4.765	  4.970
216.436	  4.770	  4.965
216.440	  4.760	  4.955
216.444	  4.750	  4.955
216.448	  4.775	  4.965
216.452	  4.775	  4.965
216.456	  4.780	  4.950
216.460	  4.795	  4.945
216.464	  4.790	  4.965
216.468	  4.800	  4.975
216.472	  4.795	  4.990
216.476	  4.795	  5.130
216.480	  4.825	  5.575
216.484	  4.900	  5.890
216.488	  5.065	  5.625
216.492	  5.485	  5.380
216.496	  5.800	  5.340
216.500	  5.820	  5.325
216.504	  5.245	  5.235
216.508	  5.195	  5.145
216.512	  5.215	  5.020
216.516	  5.240	  4.805
216.520	  5.250	  4.470
216.524	  5.270	  4.105
216.528	  5.270	  3.735
216.532	  5.265	  3.365
216.536	  5.245	  3.030
216.540	  5.225	  2.780
216.544	  5.215	  2.580
216.548	  5.220	  2.475
216.552	  5.230	  2.375
216.556	  5.210	  2.235
216.560	  5.150	  2.155
216.564	  5.045	  2.125
216.568	  4.955	  2.100
216.572	  4.875	  2.075
216.576	  4.740	  2.045
216.580	  4.610	  2.060
216.584	  4.580	  2.055
216.588	  4.630	  2.065
216.592	  4.660	  2.070
216.596	  4.650	  2.105
216.600	  4.645	  2.120
216.604	  4.605	  2.275
216.608	  4.580	  2.430
216.612	  4.590	  2.650
216.616	  4.620	  2.910
216.620	  4.635	  3.225
216.624	  4.665	  3.540
216.628	  4.680	  3.880
216.632	  4.695	  4.200
216.636	  4.700	  4.525
216.640	  4.690	  4.790
216.644	  4.655	  5.035
216.648	  4.650	  5.255
216.652	  4.640	  5.465
216.656	  4.665	  5.620
216.660	  4.675	  5.710
216.664	  4.685	  5.790
216.668	  4.675	  5.850
216.672	  4.630	  5.880
216.676	  4.615	  5.925
216.680	  4.630	  5.975
216.684	  4.655	  6.020
216.688	  4.670	  6.040
216.692	  4.660	  6.065
216.696	  4.665	  6.105
216.700	  4.670	  6.120
216.704	  4.675	  6.160
216.708	  4.635	  6.175
216.712	  4.625	  6.220
216.716	  4.640	  6.250
216.720	  4.625	  6.290
216.724	  4.620	  6.305
216.728	  4.600	  6.345
216.732	  4.610	  6.395
216.736	  4.605	  6.440
216.740	  4.590	  6.460
216.744	  4.595	  6.515
216.748	  4.640	  6.560
216.752	  4.660	  6.600
216.756	  4.655	  6.635
216.760	  4.650	  6.670
216.764	  4.640	  6.715
216.768	  4.665	  6.750
216.772	  4.675	  6.770
216.776	  4.670	  6.805
216.780	  4.665	  6.845
216.784	  4.685	  6.860
216.788	  4.700	  6.890
216.792	  4.725	  6.895
216.796	  4.745	  6.900
216.800	  4.755	  6.905
216.804	  4.770	  6.890
216.808	  4.780	  6.860
216.812	  4.815	  6.825
216.816	  4.855	  6.785
216.820	  4.870	  6.730
216.824	  4.865	  6.645
216.828	  4.895	  6.570
216.832	  4.925	  6.505
216.836	  4.930	  6.410
216.840	  4.920	  6.310
216.844	  4.920	  6.225
216.848	  4.930	  6.135
216.852	  4.940	  6.045
216.856	  4.935	  5.935
216.860	  4.930	  5.850
216.864	  4.930	  5.775
216.868	  4.930	  5.720
216.872	  4.910	  5.650
216.876	  4.895	  5.570
216.880	  4.910	  5.530
216.884	  4.905	  5.480
216.888	  4.880	  5.425
216.892	  4.855	  5.380
216.896	  4.870	  5.350
216.900	  4.875	  5.345
216.904	  4.860	  5.305
216.908	  4.830	  5.275
216.912	  4.820	  5.250
216.916	  4.830	  5.260
216.920	  4.835	  5.245
216.924	  4.825	  5.215
216.928	  4.820	  5.220
216.932	  4.835	  5.225
216.936	  4.835	  5.220
216.940	  4.815	  5.200
216.944	  4.795	  5.190
216.948	  4.785	  5.205
216.952	  4.795	  5.205
216.956	  4.800	  5.185
216.960	  4.800	  5.190
216.964	  4.810	  5.195
216.968	  4.810	  5.185
216.972	  4.805	  5.155
216.976	  4.780	  5.130
216.980	  4.760	  5.100
216.984	  4.735	  5.075
216.988	  4.700	  5.030
216.992	  4.670	  4.995
216.996	  4.650	  5.005
217.000	  4.645	  5.015
217.004	  4.605	  5.060
217.008	  4.560	  5.140
217.012	  4.530	  5.310
217.016	  4.545	  5.525
217.020	  4.565	  5.720
217.024	  4.590	  5.880
217.028	  4.645	  6.095
217.032	  4.695	  6.365
217.036	  4.715	  6.630
217.040	  4.760	  6.865
217.044	  4.860	  7.105
217.048	  5.020	  7.345
217.052	  5.155	  7.530
217.056	  5.230	  7.630
217.060	  5.280	  7.645
217.064	  5.320	  7.605
217.068	  5.260	  7.380
217.072	  5.100	  6.875
217.076	  4.800	  6.060
217.080	  4.475	  5.345
217.084	  4.255	  5.035
217.088	  4.160	  4.955
217.092	  4.130	  4.840
217.096	  4.085	  4.690
217.100	  4.080	  4.655
217.104	  4.205	  4.540
217.108	  4.290	  4.490
217.112	  4.385	  4.460
217.116	  4.480	  4.435
217.120	  4.530	  4.385
217.124	  4.555	  4.335
217.128	  4.595	  4.310
217.132	  4.640	  4.285
217.136	  4.650	  4.265
217.140	  4.645	  4.210
217.144	  4.650	  4.190
217.148	  4.660	  4.180
217.152	  4.675	  4.155
217.156	  4.675	  4.125
217.160	  4.670	  4.095
217.164	  4.675	  4.085
217.168	  4.680	  4.070
217.172	  4.680	  4.035
217.176	  4.675	  4.010
217.180	  4.685	  4.000
217.184	  4.700	  3.975
217.188	  4.710	  3.945
217.192	  4.700	  3.900
217.196	  4.715	  3.905
217.200	  4.720	  3.895
217.204	  4.735	  3.855
217.208	  4.735	  3.810
217.212	  4.735	  3.810
217.216	  4.760	  3.795
217.220	  4.755	  3.770
217.224	  4.765	  3.740
217.228	  4.755	  3.720
217.232	  4.775	  3.715
217.236	  4.780	  3.705
217.240	  4.780	  3.675
217.244	  4.775	  3.665
217.248	  4.790	  3.680
217.252	  4.790	  3.675
217.256	  4.790	  3.665
217.260	  4.775	  3.675
217.264	  4.780	  3.695
217.268	  4.790	  3.715
217.272	  4.780	  3.725
217.276	  4.755	  3.750
217.280	  4.760	  3.800
217.284	  4.770	  3.850
217.288	  4.765	  3.895
217.292	  4.760	  3.950
217.296	  4.755	  4.030
217.300	  4.770	  4.060
217.304	  4.770	  4.185
217.308	  4.765	  4.255
217.312	  4.765	  4.360
217.316	  4.785	  4.455
217.320	  4.795	  4.540
217.324	  4.790	  4.605
217.328	  4.790	  4.685
217.332	  4.800	  4.765
217.336	  4.810	  4.830
217.340	  4.805	  4.865
217.344	  4.795	  4.910
217.348	  4.800	  4.955
217.352	  4.790	  4.975
217.356	  4.790	  4.980
217.360	  4.775	  5.005
217.364	  4.775	  5.040
217.368	  4.780	  5.040
217.372	  4.780	  5.050
217.376	  4.765	  5.035
217.380	  4.770	  5.060
217.384	  4.770	  5.070
217.388	  4.770	  5.060
217.392	  4.765	  5.050
217.396	  4.765	  5.065
217.400	  4.770	  5.070
217.404	  4.760	  5.070
217.408	  4.755	  5.060
217.412	  4.755	  5.065
217.416	  4.760	  5.075
217.420	  4.755	  5.075
217.424	  4.740	  5.065
217.428	  4.735	  5.070
217.432	  4.740	  5.075
217.436	  4.745	  5.080
217.440	  4.735	  5.065
217.444	  4.740	  5.065
217.448	  4.740	  5.080
217.452	  4.745	  5.095
217.456	  4.745	  5.095
217.460	  4.730	  5.100
217.464	  4.725	  5.110
217.468	  4.740	  5.115
217.472	  4.715	  5.105
217.476	  4.715	  5.105
217.480	  4.740	  5.110
217.484	  4.755	  5.120
217.488	  4.755	  5.100
217.492	  4.745	  5.060
217.496	  4.745	  5.070
217.500	  4.750	  5.065
217.504	  4.765	  5.050
217.508	  4.765	  5.020
217.512	  4.770	  5.020
217.516	  4.780	  5.020
217.520	  4.780	  5.015
217.524	  4.765	  4.995
217.528	  4.770	  4.980
217.532	  4.775	  5.000
217.536	  4.780	  5.005
217.540	  4.765	  5.005
217.544	  4.745	  5.020
217.548	  4.745	  5.030
217.552	  4.740	  5.035
217.556	  4.725	  5.010
217.560	  4.720	  5.015
217.564	  4.740	  5.035
217.568	  4.735	  5.040
217.572	  4.735	  5.025
217.576	  4.720	  5.015
217.580	  4.725	  5.020
217.584	  4.730	  5.040
217.588	  4.725	  5.025
217.592	  4.710	  5.025
217.596	  4.720	  5.035
217.600	  4.715	  5.040
217.604	  4.735	  5.035
217.608	  4.730	  5.030
217.612	  4.720	  5.025
217.616	  4.730	  5.045
217.620	  4.735	  5.045
217.624	  4.715	  5.030
217.628	  4.720	  5.030
217.632	  4.730	  5.050
217.636	  4.730	  5.045
217.640	  4.720	  5.040
217.644	  4.725	  5.040
217.648	  4.725	  5.045
217.652	  4.735	  5.055
217.656	  4.720	  5.050
217.660	  4.715	  5.050
217.664	  4.730	  5.045
217.668	  4.740	  5.055
217.672	  4.720	  5.055
217.676	  4.700	  5.045
217.680	  4.705	  5.055
217.684	  4.725	  5.070
217.688	  4.720	  5.060
217.692	  4.710	  5.045
217.696	  4.715	  5.060
217.700	  4.725	  5.060
217.704	  4.725	  5.075
217.708	  4.715	  5.065
217.712	  4.715	  5.070
217.716	  4.730	  5.085
217.720	  4.715	  5.080
217.724	  4.715	  5.065
217.728	  4.705	  5.075
217.732	  4.720	  5.085
217.736	  4.725	  5.090
217.740	  4.715	  5.075
217.744	  4.705	  5.085
217.748	  4.715	  5.085
217.752	  4.725	  5.090
217.756	  4.715	  5.085
217.760	  4.700	  5.075
217.764	  4.715	  5.085
217.768	  4.725	  5.095
217.772	  4.720	  5.090
217.776	  4.715	  5.075
217.780	  4.725	  5.085
217.784	  4.730	  5.100
217.788	  4.735	  5.095
217.792	  4.725	  5.080
217.796	  4.725	  5.095
217.800	  4.725	  5.100
217.804	  4.735	  5.100
217.808	  4.730	  5.085
217.812	  4.730	  5.100
217.816	  4.745	  5.095
217.820	  4.750	  5.095
217.824	  4.745	  5.075
217.828	  4.735	  5.090
217.832	  4.750	  5.100
217.836	  4.760	  5.100
217.840	  4.755	  5.080
217.844	  4.750	  5.085
217.848	  4.755	  5.100
217.852	  4.770	  5.100
217.856	  4.760	  5.085
217.860	  4.755	  5.095
217.864	  4.770	  5.105
217.868	  4.785	  5.140
217.872	  4.795	  5.205
217.876	  4.810	  5.520
217.880	  4.865	  6.075
217.884	  4.965	  6.105
217.888	  5.245	  5.730
217.892	  5.750	  5.545
217.896	  5.850	  5.505
217.900	  5.775	  5.490
217.904	  5.210	  5.385
217.908	  5.205	  5.275
217.912	  5.230	  5.115
217.916	  5.255	  4.870
217.920	  5.260	  4.540
217.924	  5.275	  4.180
217.928	  5.285	  3.845
217.932	  5.285	  3.525
217.936	  5.275	  3.230
217.940	  5.265	  3.020
217.944	  5.275	  2.880
217.948	  5.295	  2.795
217.952	  5.290	  2.690
217.956	  5.285	  2.550
217.960	  5.250	  2.430
217.964	  5.190	  2.380
217.968	  5.135	  2.350
217.972	  5.070	  2.290
217.976	  4.965	  2.255
217.980	  4.860	  2.255
217.984	  4.830	  2.245
217.988	  4.860	  2.255
217.992	  4.890	  2.250
217.996	  4.880	  2.320
218.000	  4.875	  2.345
218.004	  4.810	  2.545
218.008	  4.755	  2.705
218.012	  4.730	  2.900
218.016	  4.740	  3.125
218.020	  4.725	  3.395
218.024	  4.690	  3.690
218.028	  4.670	  4.015
218.032	  4.685	  4.315
218.036	  4.695	  4.625
218.040	  4.680	  4.885
218.044	  4.650	  5.125
218.048	  4.625	  5.325
218.052	  4.620	  5.505
218.056	  4.615	  5.665
218.060	  4.620	  5.810
218.064	  4.630	  5.920
218.068	  4.635	  6.000
218.072	  4.640	  6.050
218.076	  4.635	  6.100
218.080	  4.640	  6.170
218.084	  4.655	  6.225
218.088	  4.655	  6.270
218.092	  4.640	  6.320
218.096	  4.645	  6.380
218.100	  4.650	  6.400
218.104	  4.655	  6.490
218.108	  4.645	  6.530
218.112	  4.640	  6.595
218.116	  4.660	  6.665
218.120	  4.665	  6.715
218.124	  4.655	  6.760
218.128	  4.640	  6.825
218.132	  4.660	  6.890
218.136	  4.660	  6.945
218.140	  4.665	  6.995
218.144	  4.655	  7.040
218.148	  4.675	  7.105
218.152	  4.690	  7.155
218.156	  4.685	  7.195
218.160	  4.680	  7.235
218.164	  4.705	  7.295
218.168	  4.710	  7.320
218.172	  4.700	  7.345
218.176	  4.705	  7.370
218.180	  4.720	  7.395
218.184	  4.730	  7.415
218.188	  4.745	  7.415
218.192	  4.750	  7.395
218.196	  4.760	  7.400
218.200	  4.765	  7.405
218.204	  4.805	  7.365
218.208	  4.805	  7.315
218.212	  4.815	  7.280
218.216	  4.840	  7.245
218.220	  4.850	  7.190
218.224	  4.850	  7.115
218.228	  4.865	  7.050
218.232	  4.890	  6.995
218.236	  4.900	  6.920
218.240	  4.895	  6.825
218.244	  4.900	  6.730
218.248	  4.910	  6.665
218.252	  4.935	  6.575
218.256	  4.940	  6.480
218.260	  4.930	  6.405
218.264	  4.945	  6.330
218.268	  4.945	  6.245
218.272	  4.950	  6.165
218.276	  4.945	  6.075
218.280	  4.960	  6.020
218.284	  4.965	  5.940
218.288	  4.955	  5.875
218.292	  4.940	  5.810
218.296	  4.935	  5.750
218.300	  4.930	  5.735
218.304	  4.935	  5.650
218.308	  4.935	  5.580
218.312	  4.910	  5.545
218.316	  4.920	  5.515
218.320	  4.930	  5.475
218.324	  4.915	  5.435
218.328	  4.900	  5.405
218.332	  4.910	  5.390
218.336	  4.915	  5.360
218.340	  4.895	  5.320
218.344	  4.885	  5.305
218.348	  4.885	  5.305
218.352	  4.885	  5.295
218.356	  4.885	  5.265
218.360	  4.870	  5.250
218.364	  4.870	  5.255
218.368	  4.880	  5.250
218.372	  4.870	  5.235
218.376	  4.855	  5.225
218.380	  4.860	  5.235
218.384	  4.875	  5.240
218.388	  4.865	  5.230
218.392	  4.860	  5.220
218.396	  4.850	  5.245
218.400	  4.850	  5.250
218.404	  4.850	  5.255
218.408	  4.835	  5.250
218.412	  4.830	  5.265
218.416	  4.840	  5.280
218.420	  4.835	  5.275
218.424	  4.825	  5.270
218.428	  4.820	  5.275
218.432	  4.835	  5.290
218.436	  4.835	  5.290
218.440	  4.830	  5.275
218.444	  4.840	  5.270
218.448	  4.855	  5.270
218.452	  4.850	  5.260
218.456	  4.855	  5.235
218.460	  4.840	  5.225
218.464	  4.855	  5.215
218.468	  4.860	  5.200
218.472	  4.840	  5.185
218.476	  4.835	  5.155
218.480	  4.830	  5.165
218.484	  4.840	  5.155
218.488	  4.830	  5.145
218.492	  4.810	  5.140
218.496	  4.815	  5.160
218.500	  4.815	  5.170
218.504	  4.795	  5.150
218.508	  4.770	  5.140
218.512	  4.770	  5.130
218.516	  4.795	  5.130
218.520	  4.785	  5.115
218.524	  4.780	  5.105
218.528	  4.770	  5.105
218.532	  4.780	  5.105
218.536	  4.785	  5.110
218.540	  4.760	  5.090
218.544	  4.755	  5.080
218.548	  4.765	  5.095
218.552	  4.755	  5.080
218.556	  4.760	  5.070
218.560	  4.760	  5.060
218.564	  4.775	  5.060
218.568	  4.785	  5.055
218.572	  4.780	  5.045
218.576	  4.750	  5.035
218.580	  4.755	  5.040
218.584	  4.770	  5.040
218.588	  4.760	  5.035
218.592	  4.760	  5.020
218.596	  4.760	  5.025
218.600	  4.765	  5.030
218.604	  4.770	  5.025
218.608	  4.755	  5.010
218.612	  4.750	  5.015
218.616	  4.765	  5.020
218.620	  4.765	  5.015
218.624	  4.760	  5.010
218.628	  4.755	  5.015
218.632	  4.775	  5.025
218.636	  4.780	  5.020
218.640	  4.770	  5.010
218.644	  4.760	  5.000
218.648	  4.770	  5.020
218.652	  4.775	  5.010
218.656	  4.765	  5.005
218.660	  4.765	  5.000
218.664	  4.755	  5.015
218.668	  4.780	  5.015
218.672	  4.785	  5.015
218.676	  4.785	  5.005
218.680	  4.800	  5.015
218.684	  4.810	  5.035
218.688	  4.815	  5.035
218.692	  4.810	  5.040
218.696	  4.825	  5.190
218.700	  4.835	  5.275
218.704	  4.930	  5.910
218.708	  5.075	  5.625
218.712	  5.535	  5.415
218.716	  5.865	  5.370
218.720	  5.585	  5.320
218.724	  5.230	  5.250
218.728	  5.150	  5.165
218.732	  5.220	  5.035
218.736	  5.240	  4.805
218.740	  5.255	  4.460
218.744	  5.280	  4.080
218.748	  5.310	  3.725
218.752	  5.305	  3.330
218.756	  5.265	  2.965
218.760	  5.255	  2.725
218.764	  5.270	  2.580
218.768	  5.275	  2.475
218.772	  5.255	  2.375
218.776	  5.225	  2.260
218.780	  5.195	  2.185
218.784	  5.135	  2.140
218.788	  5.040	  2.110
218.792	  4.960	  2.080
218.796	  4.845	  2.070
218.800	  4.805	  2.085
218.804	  4.670	  2.075
218.808	  4.680	  2.065
218.812	  4.730	  2.075
218.816	  4.750	  2.120
218.820	  4.735	  2.190
218.824	  4.700	  2.280
218.828	  4.655	  2.445
218.832	  4.650	  2.650
218.836	  4.655	  2.875
218.840	  4.655	  3.155
218.844	  4.665	  3.510
218.848	  4.690	  3.850
218.852	  4.700	  4.145
218.856	  4.700	  4.430
218.860	  4.700	  4.720
218.864	  4.695	  4.985
218.868	  4.695	  5.185
218.872	  4.655	  5.350
218.876	  4.645	  5.520
218.880	  4.680	  5.690
218.884	  4.710	  5.780
218.888	  4.705	  5.835
218.892	  4.685	  5.880
218.896	  4.675	  5.945
218.900	  4.675	  5.965
218.904	  4.715	  6.030
218.908	  4.715	  6.065
218.912	  4.720	  6.105
218.916	  4.730	  6.160
218.920	  4.720	  6.195
218.924	  4.720	  6.230
218.928	  4.705	  6.265
218.932	  4.705	  6.320
218.936	  4.710	  6.375
218.940	  4.705	  6.405
218.944	  4.710	  6.445
218.948	  4.720	  6.500
218.952	  4.730	  6.545
218.956	  4.735	  6.585
218.960	  4.725	  6.630
218.964	  4.730	  6.705
218.968	  4.735	  6.735
218.972	  4.740	  6.765
218.976	  4.750	  6.810
218.980	  4.760	  6.865
218.984	  4.785	  6.910
218.988	  4.775	  6.935
218.992	  4.775	  6.955
218.996	  4.795	  6.985
219.000	  4.805	  6.990
219.004	  4.815	  7.015
219.008	  4.800	  7.020
219.012	  4.820	  7.030
219.016	  4.855	  7.020
219.020	  4.885	  7.005
219.024	  4.895	  6.960
219.028	  4.910	  6.925
219.032	  4.930	  6.880
219.036	  4.940	  6.825
219.040	  4.945	  6.740
219.044	  4.960	  6.670
219.048	  4.980	  6.600
219.052	  4.995	  6.525
219.056	  5.005	  6.425
219.060	  4.995	  6.340
219.064	  5.030	  6.270
219.068	  5.030	  6.165
219.072	  5.015	  6.080
219.076	  5.000	  6.000
219.080	  4.990	  5.925
219.084	  4.995	  5.870
219.088	  4.995	  5.780
219.092	  5.005	  5.700
219.096	  5.015	  5.650
219.100	  5.020	  5.635
219.104	  5.000	  5.530
219.108	  4.970	  5.470
219.112	  4.970	  5.435
219.116	  4.980	  5.400
219.120	  4.985	  5.355
219.124	  4.965	  5.320
219.128	  4.950	  5.290
219.132	  4.970	  5.270
219.136	  4.965	  5.245
219.140	  4.950	  5.205
219.144	  4.940	  5.190
219.148	  4.935	  5.190
219.152	  4.945	  5.180
219.156	  4.940	  5.155
219.160	  4.950	  5.135
219.164	  4.955	  5.135
219.168	  4.945	  5.135
219.172	  4.945	  5.110
219.176	  4.940	  5.100
219.180	  4.955	  5.105
219.184	  4.955	  5.115
219.188	  4.920	  5.100
219.192	  4.900	  5.085
219.196	  4.920	  5.100
